-38,18436,4177,-2217,443,1353,627,32,1395,1136,113,325,1005,3595,3182,1898,484,2522,6438,7562,820,-744,-117,805,320,-1016,-1401,-1589,817,386,-570,-77,-450,-270,-111,291,793,-341,455,225,-34,348,-77,730,185,-56,125,-55,1123,1297,319,-207,322,2130,2707,933,-96,665,3512,3528,1437,-516,-315,1807,1878,-302,-911,-1010,-270,134,-435,-146,-616,-390,-19,21,686,-273,431,208,-63,151,-42,911,738,15,-120,-10,837,380,-12,479,-118,274,306,-87,-16,-72,630,321,8,339,-82,465,242,-62,168,-42,292,5,16,190,-27,832,205,-15,68,70,269,87,-34,-41,-46,537,154,1788,28,407,2442,1646,824,21,955,4757,257,-177,-381,-253,-342,2672,-191,-694,124,1699,2381,323,830,-940,-168,-165,-242,1049,-200,-462,-205,261,542,-79,1437,885,-25,-19,82,1125,557,-51,453,-94,538,319,-162,-640,-1205,-731,-2136,-326,-1732,-1218,13262,248723,1475336,4811185,4941752,5039711,4984055,4678164,2003957,-62642,682282,287338,72227,106796,92929,79936,56124,10589,-15775,-1184,1746,2845,997,-402,148,4363,7260,3374,-243,-343,3010,7983,3449,-746,-1098,2279,8585,6269,-970,-1581,1950,8049,1472,-1162,-2033,-2085,1757,-426,-441,-866,-918,2275,226,252,509,-417,1474,546,51,-293,180,2521,1052,35,-112,180,2109,889,-326,-607,1626,4286,1065,418,-239,98,1660,261,84,-142,-229,674,-52,1712,166,-145,1346,237,1068,220,1965,4146,1247,-221,-329,1692,5034,-238,-384,-549,514,2086,-54,502,-346,691,1376,8,1164,-262,396,1782,324,279,-336,1128,3678,814,-55,-173,172,1540,53,480,-566,894,3007,1173,69,-267,1137,2957,607,-337,-706,531,3700,1438,-543,-366,2815,4849,805,67,-760,1612,5479,1403,-1339,-1306,2652,7642,1299,240,-192,-1025,-151,-203,2699,-920,-383,2097,389,-32,-210,2395,4494,610,59,-449,1421,3467,21,-1316,-2566,-2302,-1987,-2255,-1491,24753,329349,1481357,3740260,4959226,4992902,4990756,3488630,662268,122000,400037,-61084,-168795,-70747,112173,91352,12,-2088,-8045,2384,-273,-158,3134,922,43,412,4863,6348,2069,-197,467,5990,11356,3441,-841,-690,3881,8548,709,-1774,-2560,2545,7643,862,-1962,-2692,1906,6004,-301,-1552,-1850,-230,3097,-970,-1546,-991,-431,1652,2,1389,-715,281,443,-74,1180,-491,1029,3497,189,334,-348,1260,2383,-55,1025,-655,1654,3268,185,564,-410,1464,2884,-132,655,-664,981,2857,-19,610,-484,1399,2906,478,-403,-628,2139,4540,706,-489,-556,2092,5492,1524,-882,-694,4309,7606,506,-967,-1578,867,3222,-622,804,-1479,10,1257,-402,624,-1004,1393,3036,-73,500,-449,925,3042,397,-364,-689,1869,4162,426,-25,-624,957,3484,621,-775,-879,2539,4667,309,-519,-855,2667,4983,174,-452,-1082,1089,1974,-524,531,-1221,-81,784,-165,1202,-558,1482,2828,58,-10,-294,1235,2305,28,686,-667,2194,2055,-731,-2515,-2550,-1956,524,-647,14488,454787,2396529,4711180,4697979,4626611,4498164,4411523,2653616,-87320,1261660,354044,-45195,-45009,114162,160491,27632,-315,-1190,-4230,2289,-123,2447,3885,432,-51,476,4834,4535,801,-324,60,5084,7764,1468,-826,173,5115,9229,953,-1657,-1515,3675,7034,-412,-1151,-2531,1194,2680,-998,-484,-1689,-388,268,525,2526,-1111,1381,2126,-147,283,-191,2703,3501,-113,92,-599,2787,5288,1314,-609,126,4192,5976,-83,-223,-1110,110,1912,-698,-583,-1364,1352,1956,-196,689,-818,1160,1813,-205,68,-551,1662,2347,-215,550,-560,1127,2005,-23,261,-475,1647,2977,-52,41,-497,1061,2884,128,51,-642,1666,2889,39,105,-654,1051,2276,-101,45,-735,124,1859,-189,1029,-558,2243,4072,183,-225,-361,2888,4454,-211,32,-941,719,1830,-281,-233,-914,1492,755,-122,-130,-572,2489,3986,534,-675,1616,4711,6771,-182,-665,-980,3091,4332,-788,-694,-1679,2968,4981,626,-1464,-1641,548,2506,-17,2693,-1292,-452,518,-166,1315,-760,2864,3998,-140,369,-342,2240,2893,-185,68,-592,2417,4411,29,-1134,-1864,84,-405,-601,-944,-2253,22761,405295,2051000,4947835,4981444,5139110,5114319,4664661,3328487,-93018,1314595,617482,141125,38569,20369,48706,80123,27418,-20948,4737,2593,748,-56,-112,2304,6313,4620,424,-274,1422,6926,6570,-92,-711,-443,2675,3652,-704,-1078,-1005,5511,7739,85,-1157,-703,5302,5996,-741,-786,-2192,515,1566,-404,2376,-1500,727,1144,-308,676,-737,1852,2837,-241,281,-388,2601,4329,610,-621,1504,8222,11484,1112,-856,94,3985,5384,-1175,-1767,-2659,3347,4021,-1040,-1234,-1992,1828,2706,-827,233,-1512,784,1155,-450,540,-991,1396,1683,-152,977,-377,2273,2256,-171,163,-124,2503,2933,-315,251,-399,2339,2172,-366,364,-541,1717,2123,-305,-92,-399,2231,2714,-223,54,-384,1745,1601,-152,1149,-585,2236,2370,-307,-274,-99,3650,4310,-287,-55,-558,1867,2123,-432,-480,-738,2920,2993,-272,-213,-554,1764,1858,-476,332,-762,2114,3022,-278,-750,813,4930,6175,-223,-647,-53,6733,8534,-435,-1538,-1085,2767,2620,125,1372,-2318,-239,265,-167,1694,-855,2853,2562,-242,610,17,3129,2991,-360,-347,154,5019,4309,-798,-1465,-2227,470,-1430,-1650,-3010,-321,169610,1336966,4663237,4839173,4901571,4995245,4886294,4431427,346964,1148975,752984,168094,70050,102342,58322,41169,27803,-31121,-8004,2420,2935,2521,-172,-142,2518,7284,4978,52,-505,1015,7353,7877,-173,-1035,654,6649,7712,-431,-1820,-406,7003,7401,-1132,-1270,-2341,1873,1660,-1230,-146,-1809,566,216,591,2592,-1073,1777,1853,-194,220,280,3977,4304,-259,-337,-230,2930,3407,-301,-919,1074,7317,7935,-230,-864,565,6219,6440,-1163,-2192,-1589,4962,5346,-946,-1006,-2209,784,624,-191,1179,-1629,1196,715,-98,1245,-455,3135,2534,-229,-31,-32,2763,2969,-331,-54,-452,1233,919,-21,374,-314,2619,2875,-296,-286,443,3076,2404,-124,562,-539,2726,2635,-491,-247,-417,2398,2015,-266,-166,-254,1889,1640,-288,-144,-222,2804,1986,-59,-103,-237,3399,2170,-338,186,-326,2798,2406,-393,-232,-394,3090,3087,-415,-394,-280,3009,2494,-409,-587,-433,2548,2888,-529,-782,110,4316,3784,-527,-1022,830,5276,2883,59,711,-1121,1184,269,-633,988,-951,2925,933,-93,630,-451,742,784,340,571,488,3412,3250,-18,-347,1681,5167,2944,-845,-2700,-2870,-1384,2205,4651,156888,1204109,4141225,4861943,4756539,4639247,4440246,1952767,-41334,756781,212498,-122691,-113467,32827,215080,67411,-3369,9333,148,2539,290,2002,8504,3863,117,-122,3005,7154,4417,-391,-461,447,3641,2835,-807,-1011,-93,5267,5249,-774,-1340,1337,8837,7027,-1050,-1416,-828,4547,2584,-488,-338,-2132,1805,419,222,1012,-1179,2202,1070,-64,273,-52,2690,1407,-95,63,756,4102,2924,-389,-448,528,3308,1729,289,390,-479,2599,1791,-444,90,-236,2493,1041,-13,148,-500,1732,926,31,67,355,2972,1521,-186,180,150,1763,979,110,72,-38,1886,856,622,-33,576,4098,1648,-86,-39,473,3204,1047,132,360,-267,2446,1479,-289,171,376,3835,2553,-285,-223,121,2960,2164,-137,-316,-353,2324,1323,-252,61,-191,3107,1407,-161,32,85,4114,3522,-463,-874,1943,7399,6524,-93,-1108,1395,4942,2077,836,339,-1568,573,-373,721,1120,-978,2408,682,776,15,343,3286,2423,-295,-432,769,4048,1440,360,-184,-555,1261,-73,-2422,-1080,-2022,11078,32622,168673,980707,3157260,4970632,5017469,4704092,4269509,1295774,-46107,621166,204130,-70399,-145022,-60541,97473,96735,5134,11815,3432,-37,3214,-187,3627,7435,2957,-270,-84,4932,10187,4728,-518,-892,2581,9421,4806,-1298,-1894,2288,9698,5462,-1450,-2259,-1191,3612,813,-1337,-1896,-1971,3311,1393,-230,328,-800,2373,513,-9,-132,-685,1525,257,1154,3314,1716,4695,3626,-391,-294,2967,5675,2351,1126,183,-909,1468,-132,353,-97,-145,2599,955,337,-128,504,4084,956,-45,119,190,2947,1045,-52,-211,136,2008,500,690,-178,390,2702,1216,-269,-504,1406,4503,1224,90,-129,217,1668,275,287,164,-87,2447,746,296,116,175,2686,650,678,-81,291,2522,811,365,-396,1247,4093,1068,-227,-543,1642,4858,917,-211,-547,1074,4141,1408,-567,-853,1043,4683,1185,-343,-732,100,3043,694,-171,-496,154,2665,446,27,-433,402,4058,2569,-573,-800,2168,5760,2588,-469,-1073,1131,4180,961,-487,-908,-126,2979,-43,-375,-530,-427,1197,-106,2406,-549,251,1789,444,18,-368,2089,4540,1100,-332,-485,901,3234,-521,-2662,-2001,-2450,3687,8978,73391,917181,3636558,4961776,4995170,4780510,4463201,4267416,806685,631052,912537,114156,-111230,-69443,69877,162445,27087,8736,3599,-324,5295,-130,3207,7820,2320,-149,132,3935,6853,1634,-556,-951,2619,7518,2179,-964,-889,3707,9317,5165,-1364,-2013,2075,5686,397,804,-1070,-1748,818,-353,-45,-810,-210,3053,313,764,-424,98,2007,129,448,-388,396,2022,32,801,-560,3604,9351,5763,442,991,7669,14083,4099,-965,-1956,-205,3250,-325,-998,-1400,-1306,1397,-261,2626,-1248,430,3270,1140,-83,-454,1632,4039,92,643,-374,-217,1468,-69,618,-636,1451,3801,776,-100,-380,2563,5135,936,-292,-727,1350,4146,431,-171,-724,338,2950,124,311,-754,922,3582,713,38,-631,1354,4049,957,-447,-817,1219,3924,356,2120,-909,3566,6767,3530,-838,-831,3935,11011,-144,-308,-1323,-692,2239,-243,-1016,-1857,158,4406,326,-274,-351,419,2267,-31,18,-784,689,214,1065,-515,-817,1891,4210,345,-103,-753,760,2795,106,-67,-741,884,3284,441,-289,-906,1923,4471,1056,-402,-831,1121,3163,128,138,-911,509,3040,607,-593,-863,1559,4134,255,-124,-849,927,2783,356,-421,-954,2251,5368,1339,-858,-901,1838,3617,-173,753,-1391,2705,4799,611,-861,-1019,3089,5956,-147,-140,-1052,-432,476,87,3309,-1070,1241,3402,487,-169,-308,3014,5183,265,-121,-920,813,2026,-1190,-2478,-2368,-1950,2464,14784,338950,2194711,4558160,4633308,4639680,4441238,4234263,3782084,69593,1846472,952020,142105,-67915,-25383,118027,141648,9354,13856,4623,-1041,4434,368,6539,8414,2532,-101,645,5976,8753,280,-742,-1069,2561,5829,650,-1158,-1056,4769,7932,681,-900,-1789,1550,3730,-581,-130,-1652,303,2299,-311,766,-903,220,1611,-102,2805,-529,381,1458,-128,745,-411,3686,6471,1431,-427,82,5655,10388,2035,-1064,-254,5314,10803,2147,-1610,-2078,4706,8709,71,-2206,-3139,2143,5408,-1009,-258,-2311,-338,1843,-973,340,-1461,839,2190,-225,1146,-789,1037,2478,-28,282,-564,1625,3760,118,406,-567,1369,2570,95,408,-694,1315,2873,185,-192,-599,1221,2660,-146,907,-650,1796,2731,81,-229,-586,2980,5625,7,-165,-742,1453,2176,-112,206,-956,1123,2680,121,-297,-600,2046,3577,102,3,-677,1263,2414,-237,334,-780,1085,2404,395,-454,-676,2117,4190,721,-612,-169,6278,2818,-270,469,-967,1171,2530,-539,-76,-857,1366,2986,103,-505,-943,3187,5758,654,-493,-657,1104,2508,-312,334,-1078,77,1364,-191,708,-751,2390,3987,469,-386,-483,2908,4273,-14,-309,-913,3051,5637,820,-881,-622,5709,8998,834,-1260,-1598,828,2477,-456,1269,-1725,-410,406,-302,1796,-910,2941,3962,-60,138,-293,2139,3814,-94,42,-782,2221,4011,-285,-1726,-2819,-807,-1827,-467,-2146,-572,248602,1668599,4796056,4760544,4828965,4937116,4873076,4285350,68887,1283826,600776,101326,110503,129006,44529,42637,17600,-29292,-7585,795,3688,4122,268,-135,1734,6432,5839,416,-189,-264,4513,8439,2035,-655,1287,8848,12057,507,-849,-1757,1024,2423,-1570,-2572,-2910,1462,3842,-128,2264,-1381,516,501,-412,1017,-1048,1684,2096,-122,1890,-493,2064,2986,-200,92,-274,2621,5097,142,-661,121,6491,8785,1024,-772,160,5949,5833,-657,-1465,-2133,1983,3552,-1036,-329,-1710,1687,2117,-573,532,-1136,1065,2327,-305,920,-863,1684,2711,-123,926,-637,2067,3707,-208,1,-547,2541,3104,-170,-58,-748,1726,2620,-321,205,-552,2448,3330,-303,-162,-636,1976,2369,-246,790,-836,2382,3228,-160,-251,-553,2483,3066,-342,127,-796,946,1977,-211,-117,-562,2599,4379,513,-537,-158,2745,3993,-349,-342,-1002,1709,2833,-533,-458,-1000,2628,2933,-468,516,-942,2531,3031,-412,272,-828,1973,3057,-333,-334,-876,2247,3576,-304,2305,672,6401,7693,1489,-756,1559,8909,13313,-964,-1308,-2057,-73,169,-143,492,-2619,5002,4534,-442,-619,-556,4299,4258,-644,-43,-1312,467,556,101,631,-974,1408,1813,-237,300,34,3253,2327,-208,380,-382,3444,4340,-2156,-1710,-2404,-1054,5598,10786,205136,1350611,4443519,4919451,4868572,4639320,4358073,1869997,-59798,773269,248075,-122925,-137264,8678,206678,91141,-4084,12769,1175,1877,1213,1259,9377,6156,-120,-7,825,6064,5485,-142,-856,-45,6303,9050,655,-1214,657,8268,9777,-484,-1889,-1795,4271,5394,-1377,-1534,-2910,2700,3005,-1158,-404,-1978,1475,1351,-192,1256,-1318,1227,1409,-221,1161,-508,2160,2728,-265,113,-294,2496,2863,-275,-62,-480,2492,2510,-298,238,-382,3264,3815,-52,-702,-432,2473,2927,50,1047,-967,1049,1349,-369,-819,-568,4291,4278,-241,499,-472,644,841,-379,144,-892,2089,2915,-228,799,-53,3656,3344,-242,-176,-565,3154,3406,-424,3926,1440,5817,5890,140,-935,671,4869,6488,-350,823,-1540,1189,1226,-626,349,-965,3605,2914,-416,-583,-112,3503,3374,-243,579,-519,2023,1414,-550,-462,-607,4278,4099,-376,393,-238,2760,2708,-489,-412,-790,2802,2592,-346,-52,-737,1715,1318,-395,-291,-25,3683,2647,-407,-128,51,3493,3665,-657,-772,251,5614,5815,-349,-851,-559,4679,5772,-836,-1017,-1481,1009,596,782,378,-1726,1086,817,-99,1474,-55,4776,3487,-413,315,-108,3909,4685,-320,-628,-454,2724,2166,-728,-1137,-3069,-1007,-2165,-1221,-3048,8837,309724,1786868,4890659,4863726,4932820,5004151,4828920,3738135,-22658,1258764,573724,109265,97648,104609,53561,10025,25813,6416,-12144,2416,4352,3538,134,-77,3287,3426,7055,-24,-602,-406,6283,6237,-408,-1113,1349,5104,6597,1602,-1524,-12,7199,5823,-1388,-1713,-1704,1775,3595,-825,-127,-2042,1176,1086,-236,1385,-1339,1490,711,397,1129,-345,2954,2137,-244,167,728,4567,3830,-495,-667,1435,8265,7259,-359,-1035,1506,6096,5097,-744,-651,-1721,1633,436,437,526,-1549,2559,1431,-435,-336,-234,2695,1182,374,415,-122,3055,1858,-353,-44,61,2842,1840,-226,284,-515,2164,1885,-257,-53,-6,2858,2309,-240,-440,352,4152,2772,-255,71,-346,2224,1499,-283,243,-595,2306,2075,-371,-142,-129,2548,2165,-165,632,-214,2704,1468,-281,168,-211,3778,3008,-428,-543,604,4601,3789,-380,-170,-331,3204,2239,-699,-847,-473,3038,2162,176,226,-513,2294,1669,-580,-643,-110,3766,2248,256,-417,-159,2965,2313,-566,-534,318,5837,2397,-582,-598,-162,2719,1443,272,-274,-517,2037,910,-357,-553,445,6206,3839,-471,-668,803,6073,5049,-732,-1335,63,3270,838,1673,-202,-1436,1671,270,-184,262,-69,3901,1804,-504,-501,442,3242,1550,78,52,21,2770,1199,-1056,-1949,-1844,-574,-2210,-847,-3032,25249,571265,2670541,4791410,4806731,4890779,4939431,4761034,3133036,-128731,1325263,529751,124652,106140,78628,22040,41536,13109,-26771,-2329,2892,2626,832,125,-63,4259,7570,3211,-332,-340,1792,7089,3886,-631,-1013,813,5412,4372,-752,-1463,1661,9925,6751,-1105,-1488,-400,4167,1326,54,675,-2064,839,82,544,562,-880,921,266,1595,278,606,4579,2468,-335,-273,1643,6520,2940,-394,-1086,1592,10146,6239,-648,-1241,1812,4671,2927,-1000,-1716,-1397,1352,778,-821,-763,-878,2944,1067,362,81,-482,2173,816,69,-27,-350,1837,535,548,-32,-3,2106,687,549,-141,685,3326,979,-152,-363,629,3042,771,170,-135,585,3304,1134,-91,207,350,3294,1109,-53,-32,-97,2451,2,-98,-337,493,2791,960,449,5,1637,3536,1542,-489,-666,2040,5356,2118,68,-274,284,2808,596,-508,-860,-85,5101,2249,-450,-616,827,3104,283,78,-587,55,2994,1071,-301,-754,1308,4140,1047,152,-374,423,3999,1631,-690,-862,938,4888,2129,-640,-1112,1293,4739,1719,131,-515,1497,5243,1872,-968,-1145,-125,1972,900,403,-427,-688,1599,76,1503,-256,446,3834,1479,-60,-90,879,4785,935,-189,-87,2443,3248,550,-2124,-1801,-2463,-1641,-1350,-3401,102096,1144068,4328696,4813606,4689301,4637452,4611647,4035861,231151,1150172,496170,-45525,-36670,101717,228521,74177,-11394,8029,-3620,2906,-68,2806,5964,955,291,-77,4129,6950,2585,-260,-56,6371,11050,3544,-721,-1060,973,4858,703,-1443,-2372,1709,9630,3255,-1181,-1876,2029,7045,827,-870,-1456,-841,1764,-490,293,-468,-619,1515,-50,934,-318,573,2371,345,393,-485,1698,4428,1197,-476,-597,3160,6675,643,-158,-603,1094,3968,1235,-815,-1289,1269,3710,353,691,-535,-436,1387,-165,1028,-551,1309,3862,661,103,-329,1338,3474,608,500,-627,1100,5611,770,133,-462,510,2825,219,418,-659,1215,4757,1299,-273,-573,1751,4328,507,257,-30,133,2283,298,1009,-625,666,2051,846,-155,-507,1045,3964,277,246,-423,1296,4616,1010,-273,-558,1102,3220,597,-65,-470,169,2051,483,-157,-723,1880,4210,990,-185,-483,1544,4084,936,-589,-785,970,4008,352,232,-649,507,2854,610,-215,-1009,2697,6443,2352,-765,-845,4958,12080,2531,-1090,-1474,905,3884,-244,724,-1783,-571,1751,-281,1817,-975,1571,4061,503,-9,-454,1105,3772,428,295,-785,1235,3734,539,-1836,-2869,-1975,-1697,-2275,-2906,17799,463550,2072438,4774090,4745504,4782912,4813721,4728398,1063828,168218,565150,19897,-34900,96281,215306,84415,-1112,-1466,-8751,1396,-94,3178,6774,1157,-20,422,4105,7146,1836,-488,-318,4960,9135,1186,-761,-933,4779,9464,1525,-1769,-1796,5707,9417,1388,-1638,-2753,-411,4171,-1028,-523,-1682,-464,2632,-273,71,-947,140,1237,-133,1983,-715,381,2687,202,354,-391,2388,4598,377,66,-605,1412,4312,520,102,-752,1686,4961,1266,-600,-964,1410,4535,275,192,-459,-227,944,-245,1309,-924,1376,3349,401,273,-407,2176,4526,319,-5,-530,1182,2734,118,119,-735,1174,3770,792,281,-409,876,2539,35,433,-616,622,2677,110,880,-394,1366,3442,390,-151,-583,2566,5099,795,-318,-766,1735,3333,110,194,-928,1164,3220,145,-337,-911,2592,4595,35,507,-831,2270,4801,393,-524,-1064,2595,5361,288,-366,-1162,974,4046,479,-375,-1043,1166,4001,358,-620,-1192,1873,5230,429,-63,-1069,1656,3769,1,-262,-1123,1591,3949,781,-856,-1166,2481,4661,2,263,-885,612,2921,-201,-343,-1244,2922,4783,49,356,-981,1572,5296,1369,-1127,-1080,3893,6601,506,-723,-1367,362,2108,-435,1523,-1447,1667,3293,78,-291,-955,2441,4319,-142,133,-976,1135,3698,315,-533,-859,2459,4801,153,-142,-1508,-498,1131,-2406,249,-3288,2838,37024,438349,2132978,4736453,4826760,4934856,4697846,4314133,3537940,-95675,1457186,732765,164133,-52413,-60255,40644,143589,31563,1319,8983,2638,4,1562,499,6137,6608,929,-215,233,6139,10870,2656,-666,206,5725,9464,494,-1248,-2086,2484,4722,-939,-829,-2330,1619,3658,-545,-677,-1733,1787,3499,-319,646,-842,201,581,196,3035,-936,1940,4777,406,-235,-88,4373,6906,293,-468,-1109,3235,7170,1834,-1057,-421,7197,10056,999,-1175,-1849,2249,5489,-913,-1221,-2321,503,2518,-548,1239,-1576,534,1909,-306,1090,-914,2249,2876,-60,143,-694,1710,3202,-117,3042,183,4924,7552,1503,-689,-113,5190,7859,-735,284,-968,-430,669,-585,505,-1215,2109,3808,545,-80,-392,2377,3385,-209,562,-923,1953,3866,-61,-126,-787,2586,3976,-198,-62,-1083,2018,4665,381,-546,-855,2267,3816,-231,274,-1167,1631,2538,-313,-131,-985,2453,3386,138,-453,-706,3017,4656,102,-432,-809,1618,3265,-413,478,-1215,1890,3264,-91,-178,-960,2378,4119,-308,-66,-971,2023,3671,16,-135,-948,2488,4318,376,-968,-674,3819,5500,-265,1407,-1096,2539,3369,-515,-1314,-1284,5521,9114,-243,-754,-1278,2397,4007,-608,-372,-1415,1001,1905,-349,-998,-1423,1903,2080,165,2592,-240,3882,5008,129,-855,-540,2538,6099,-524,916,-1565,702,2160,-156,-491,-860,4306,5716,-1544,-2489,-2934,-1462,-1957,-2366,-2951,286373,2081337,4700486,4639602,4596265,4650470,4680792,4329677,33235,1628739,661828,65906,28299,151856,147261,34014,2530,-15153,-10412,-166,1114,6931,5917,525,-70,1751,6682,5412,130,-635,-88,5978,7156,-155,-767,-837,2942,4741,-525,-1617,-1337,5771,7667,-3,-1041,-1352,2169,2784,-789,432,-1893,154,469,582,2911,-1137,2369,3611,-269,491,-236,3717,5174,-188,-547,-686,5306,8752,1420,-827,1349,8548,10239,-156,-1462,-1794,3496,5212,-1539,-1192,-2723,2449,3188,-895,-43,-1930,1315,2051,-455,522,-1228,1720,1817,-280,1238,-683,1726,2304,-298,996,-374,2999,3797,-274,598,-354,2658,3682,-292,-118,-643,3309,4495,-234,-505,-450,3608,3388,-385,615,-1025,1299,333,-408,588,-883,3073,4104,2090,120,717,3964,3090,-99,-747,-893,-934,2714,64,1689,-684,2173,2831,-268,-183,-460,5253,6420,-210,-367,-929,2327,3294,-471,-138,-1255,2773,3502,-253,-726,-826,3626,4518,-468,0,-993,1039,1809,-536,310,-1166,2916,4511,-41,-502,-401,4027,5216,-366,-527,-1004,3034,4493,-347,-386,-1241,1509,1800,-494,-50,-1332,1601,2311,-347,-207,-492,2750,2459,-313,479,-582,2369,2711,-158,-556,-374,2988,3658,-363,-508,-504,2570,2529,-254,-125,-487,4240,3859,-424,-805,-440,5106,4131,-559,371,-1087,1099,1677,-572,-59,-1064,1560,1676,-189,390,-405,2782,3361,-752,-1642,-2153,-135,-1503,-1530,-2617,5699,315489,1716564,4721648,4701805,4758863,4837835,4756767,2433136,-80795,861158,275165,28648,118994,174754,48551,24558,11755,-16876,-3106,1250,4238,3994,-26,-46,3788,9415,7781,300,-526,2758,9856,11721,-398,-1471,-358,5987,8002,-1159,-2553,-1683,6630,6774,-1079,-1185,-2823,1976,2442,-1373,-42,-2266,2968,2179,-643,32,-1392,1550,1731,30,1688,-681,2490,2312,-226,797,-327,3460,3684,-387,-289,-336,3714,4477,-148,-814,466,5567,5003,-445,82,-900,1632,1804,-698,486,-1336,2752,2566,-356,476,-718,2163,2559,-297,426,-562,2466,3085,-305,122,-506,2692,2817,-337,77,-599,2080,2510,-301,865,-569,1526,1565,-177,811,-427,2836,2577,-254,345,-179,2607,2778,-325,197,-386,2479,2496,-299,562,-242,3503,3194,350,-314,-224,4815,5269,-383,-860,-237,7181,4354,-477,320,-1216,1956,2643,-655,-1215,-459,6024,5959,1524,152,-823,1712,2029,-990,-864,-1404,64,2211,-182,202,-579,2592,1904,-383,66,-145,4419,3557,-522,-515,-207,4592,3921,-504,-140,-777,2582,2959,-593,-519,-709,4039,5215,-164,-919,-445,2641,2808,-240,492,-1333,1109,613,206,1316,-645,4349,4102,-485,-553,532,5120,4740,-455,-291,-850,2427,1702,-2305,-1061,-2979,-423,6801,16945,159075,989658,2958419,4972777,4822242,4613241,4319987,1469884,-44132,710030,182891,-158998,-196406,-81168,108789,79831,-4068,10906,931,2775,959,-34,6751,6204,-12,-184,2010,8795,5671,-240,-916,692,6601,7155,-489,-1685,683,7251,7230,-1182,-1666,-1665,4358,4573,-1629,-2227,-1994,5634,4379,-837,-301,-1871,57,1162,-778,-580,-1511,2832,1693,-309,1065,-603,1816,2361,1162,-219,-430,1888,636,344,1027,-648,3960,1365,1,978,354,2247,1264,44,1251,-13,3354,2806,-205,541,487,3541,2798,-393,-480,-11,3353,3357,-230,146,-294,2318,1831,-446,-166,-642,2250,1438,22,459,-287,3059,2168,-336,-49,204,3253,2347,-54,596,-322,2886,2363,-274,261,-272,2920,1425,-138,352,-428,3020,2120,-243,193,102,3722,2159,-333,205,-298,2295,1634,-326,71,-140,2270,1974,-328,-60,161,4811,3327,-472,-449,169,3930,3544,-433,6,-777,2990,2277,-610,-827,-254,5635,4754,-408,-901,110,4622,4006,-848,-1668,509,6694,3976,-51,1928,-1221,2583,1328,-1252,-214,-1321,2610,1621,391,-100,-317,328,910,148,481,464,4032,1022,-113,-224,527,4553,2105,-2561,-675,-2187,8977,23896,119673,911245,3524445,5064761,5130073,4857285,4377757,3768766,349037,777591,684709,70853,-114527,-91502,52068,163899,32909,11264,12032,520,2275,861,2134,7663,3835,-195,-297,2004,7595,5482,-362,-890,2133,7058,5835,-768,-1355,926,7735,5165,-1460,-2099,-247,6902,5026,-1318,-1491,-1921,2379,1087,-895,-894,-1824,2694,1304,192,910,-835,1852,772,-70,360,-508,2095,845,672,53,442,4909,3919,-110,-497,1649,4924,2664,37,676,-770,1416,757,-113,682,-483,3127,1491,390,750,123,3428,2742,-416,-413,685,4147,2221,-68,338,-265,2287,1024,-109,424,240,4631,2967,-444,-475,572,3656,2297,202,485,-146,3618,2188,-595,-279,-95,3657,1840,-11,-44,-195,3452,2346,-414,90,-53,3729,1839,-206,3476,0,10697,8884,630,-471,5130,4822,12079,-63,519,-2167,345,-333,-1013,-439,-2218,3956,2281,-441,-516,180,3734,2039,-438,-735,1201,5199,3697,-716,-923,1309,8351,6076,-1113,-1407,-56,2991,902,1385,-133,-1797,1483,47,610,-110,-1,4624,1364,295,485,539,3623,1748,-112,225,193,4241,2865,-961,-1884,-1324,2887,-1140,-550,-3113,11311,240297,1470787,4686681,4790485,4881674,5006272,4706392,4030929,125216,1352632,739839,137057,53929,49406,8775,67621,31986,-38645,-3475,4407,3320,1342,-59,-203,4120,8102,3615,-564,-603,1697,6920,4882,-618,-1046,1036,8149,7009,-720,-1662,1131,7627,4506,-852,-1043,-1992,2445,1300,-1194,-1450,-1440,3638,1230,946,5338,136,6402,4039,-722,-1217,2138,6823,6492,484,-554,-1205,2793,1590,-1173,-1065,11358,9202,2760,-632,-1076,-222,3726,2750,-343,150,-637,1196,330,324,200,-873,3842,1476,76,-38,462,3241,835,290,-86,277,2964,1395,-61,24,174,1792,502,680,-232,536,3714,940,312,-126,1286,4504,1102,-195,-411,1099,4950,2552,-570,-559,688,3073,809,350,-48,-197,3431,1865,-515,-304,773,4396,2252,-273,-99,-122,2770,1668,-481,-737,190,3051,1057,914,-224,185,3267,1844,-667,-832,2025,7331,2917,-357,-541,-358,2021,53,683,-122,-247,4409,2484,-465,-608,1539,5149,1918,390,-130,-440,2627,611,-144,-644,1033,7353,3594,-593,-916,2420,8011,4688,-924,-1507,331,3435,935,334,78,-1221,2643,-156,17,277,-590,1462,130,1957,-226,1101,2543,1034,-216,-334,2060,6428,1866,-387,-1082,-566,1143,-1911,465,-3343,5281,64175,604347,2435069,4795210,4883972,5012872,4730374,4219921,2191617,-93131,1199069,481950,92794,15609,11018,68571,103923,14271,-7685,6336,2103,-65,1164,121,5751,8951,3721,-251,-150,5222,11473,3680,-578,-1160,1379,6428,2819,-1420,-2081,3063,10763,4175,-1339,-1952,796,5642,742,-829,-1600,-957,3008,147,455,155,-840,1697,-13,1432,-180,208,3339,1378,-216,-274,1597,4920,1769,-339,-688,1813,6067,4362,-629,-919,2760,6954,3031,-458,-896,-796,2345,-77,-410,-511,-942,2331,245,888,-110,-47,1391,428,-17,-414,1665,4992,1684,-308,-305,1046,3530,440,993,-38,-149,1777,394,649,-525,875,4099,1399,69,-368,1070,4208,809,-28,-310,306,3055,378,793,1429,2028,5687,2200,-386,-743,2436,6662,3759,-932,-852,-12,3269,143,197,-842,226,3393,1470,-515,-800,2474,5904,764,-184,-470,87,2756,574,-375,-1171,1788,5312,1492,-419,-757,1165,3884,531,-318,-973,720,4000,1062,-562,-840,1437,5739,1241,-448,-700,757,3740,2180,-983,-1520,1219,3584,416,2419,-687,251,2466,24,140,-42,119,3435,347,715,-282,511,3891,1703,-278,-509,1806,5093,1227,130,-843,557,3094,-941,-1689,-1370,-397,14158,43969,325684,1618367,4817618,4932791,4939420,4491213,4115028,1060346,1223,622880,176607,-74230,-120987,-23561,137927,92736,160,11596,3328,-268,2423,-41,6881,8127,1664,-159,-258,3087,2943,567,-757,-950,4370,3212,604,-989,-185,4425,8545,1449,-1210,-905,3360,6392,1905,-1620,-2498,2187,6627,591,-66,2601,-50,4365,999,-1473,-1902,1352,4350,2338,1377,-677,-580,1111,-304,888,-393,87,3465,534,191,-545,1612,4317,858,196,-155,804,3765,579,-54,-200,8,1313,31,1434,-559,823,2910,705,269,-309,2617,5192,560,338,-325,982,3946,780,-315,-764,1748,5095,1106,58,-384,589,2742,290,495,-332,183,2013,202,725,-415,827,2783,151,1077,-398,2208,5500,1159,-106,-426,1901,5152,779,171,-525,541,3646,880,-394,-727,1580,6213,1600,-443,-707,1108,4658,1047,-400,-1306,1296,4793,1662,-587,-1134,1144,4469,281,-306,-1001,217,2760,354,190,-697,1458,3521,400,199,-651,1064,4594,1711,-794,921,3794,8684,2032,-689,-1077,1136,5025,-1189,-1628,-2060,3083,5262,371,2935,-985,84,1138,-694,209,-272,-42,2933,-105,2372,-739,1188,4275,1273,-238,-444,2498,5933,863,-187,-1179,-101,888,-2058,-446,-3076,6048,33216,259070,1334974,4405183,4959392,5069098,4890617,4290069,2745275,-18103,1084743,524239,72670,-48804,-54869,45115,140854,32815,-1853,8727,2218,-187,1653,430,7416,7951,1971,-364,-288,4990,9402,2657,-883,-808,5111,11054,4230,-1501,-1429,4424,9528,1696,-2075,-3024,902,6655,-590,-549,-1689,-933,2271,-446,136,-1012,115,3169,79,1358,-288,140,2370,176,763,-740,2136,5746,1703,-376,-580,2901,5637,169,777,-861,729,3300,336,-265,-1042,2531,6510,1257,-590,-1018,1546,5542,402,-287,-920,155,1879,-244,676,-452,242,1672,59,599,-638,3461,4723,710,26,-222,864,3028,169,277,-705,10980,3466,813,69,-657,2137,4945,1173,-59,-639,983,4145,728,-349,-963,135,3466,156,854,-684,507,3169,365,-56,-689,1428,3904,652,-210,-752,967,3119,353,-63,-671,1736,4147,746,-158,-694,1274,3956,411,-62,-640,728,3464,374,44,-694,1226,3810,760,-91,-750,1729,4462,1301,-678,-983,3600,8265,1318,-608,-1079,1196,3764,-146,-59,-1236,990,3985,450,-124,-901,1155,3457,654,-193,-920,1025,3764,719,-531,-880,1971,5158,621,-117,-818,1223,3980,576,-577,-1235,1695,3635,131,227,-1092,1511,3481,274,-431,-951,3924,8144,2037,-1042,-1008,3097,7362,1261,-292,-1943,-338,2809,-232,-1129,-1623,916,4686,-439,1282,-326,55,1218,-118,348,-310,1179,3171,94,1066,-534,3566,6509,1813,-1022,-1304,3223,7587,-2311,1977,-3665,6603,196366,1314409,4612660,4657286,4840031,4936912,4572711,4095094,716561,734825,1147558,337931,89680,-24122,-19336,71991,75929,-23310,1729,6689,3166,-93,642,1100,6753,7830,1002,-322,-252,6037,10953,1782,-858,-979,3960,7335,586,-1432,-2238,2908,7499,649,-1480,-2054,3276,6113,-430,336,-1851,754,2540,-525,691,-612,37,1135,-76,2569,-918,1935,4170,662,15,-315,2619,5675,586,-848,-910,4168,9460,2496,-721,-344,5857,8261,605,-1022,-2297,2042,5719,-272,-1787,-2409,1360,3906,-368,2799,-1218,107,2404,-317,850,-799,2348,5285,533,-316,-700,796,3258,-41,1050,-880,1718,3393,337,-193,-644,2295,3763,-57,651,-896,1490,3513,417,-124,-654,2005,4096,-115,216,-960,-49,4653,128,597,2054,6607,7458,2043,-291,-1195,3386,6041,3206,329,-1215,-172,2205,-406,89,-1017,846,3698,179,-123,-747,1715,3558,163,315,-790,2374,4404,1152,-801,-776,4233,7023,269,355,-914,1127,2943,-185,-585,-1403,1883,4582,377,-470,-1094,2343,4940,327,-483,-1086,2767,5513,512,-60,-1035,1334,2984,-156,-201,-1356,1302,3575,184,-63,-880,2374,3820,128,-63,-913,1871,3933,79,-202,-952,1560,3938,424,-786,-1004,2905,5298,223,-379,-1021,2235,3929,-204,-470,-1364,2133,4055,-125,-391,-1294,3351,5903,563,-687,-1135,2563,4003,-246,519,-1099,473,1957,-322,1357,-1025,2414,4249,244,-264,-646,3478,6237,437,-274,-982,2237,3809,-1166,-2544,-2833,-2308,-557,-2253,-1836,257425,1890926,4730840,4698021,4568663,4545054,4581664,4012911,-21503,1361079,538096,-10806,-6476,157845,178581,43191,-1493,-4619,-8523,1252,558,7660,8166,1220,-89,1347,9207,7945,470,-586,-901,3688,7334,505,-1137,-1323,4482,8215,1513,-1514,-1614,6261,10299,321,-1355,-2282,878,2796,-969,759,-2081,195,2401,-433,93,-954,762,1219,147,1874,-773,1528,3328,187,-203,-121,5380,6548,529,-594,-809,3411,5653,87,-681,-1238,2053,5125,94,-1123,-1470,4073,5735,-267,466,-1281,1430,2685,-501,484,-1058,1188,2308,-177,197,-968,1071,2778,-18,724,-437,3194,4733,193,-64,-648,1945,3843,-287,611,-1063,1954,4074,268,7,-749,1969,3494,155,1,-957,1034,2326,-143,522,-777,1937,3996,284,-340,-572,1393,4504,-140,1076,-1022,3616,3674,-74,-160,-1019,3397,7389,630,-1168,-1016,5476,5307,-186,-710,-1571,1413,3615,-344,-64,-1147,1224,1923,-402,1013,-1161,2294,4053,365,-81,-659,2786,5190,330,-605,-936,3309,6536,361,-293,-1034,1987,3554,-389,-218,-1438,1063,3434,-20,442,-943,1528,4439,401,-826,-810,3307,5219,-99,-375,-952,5119,5656,-302,-377,-1109,2574,2875,-653,325,-1358,679,1513,-218,808,-816,2864,4198,627,-658,-52,4838,5443,-291,190,-1046,710,378,-2114,630,-2013,-1526,5600,11393,117372,939883,3163196,5017356,4961665,4723753,4395612,2312580,61008,855469,319455,-104523,-190158,-92386,113928,107189,-24,12645,3040,1374,4263,-508,6043,7635,486,-181,675,7159,8547,994,-367,-558,5909,8681,1722,-1489,-36,7032,11946,-213,-1899,-2292,3217,5084,-1549,-887,-2836,1461,2705,-718,-1419,-2262,2723,4451,-394,914,-1151,782,1029,-356,2041,-1095,1985,4030,-36,50,-454,2307,3451,-148,857,-874,2228,3460,-160,1300,-598,2923,5191,80,-289,-789,2403,3299,-250,2133,-1022,1225,2987,193,-320,-554,4200,6138,273,-397,-799,2664,3880,-236,-57,-1093,1371,2512,-348,901,-932,1514,3227,-22,137,-739,2494,4163,325,58,-790,1084,1956,-220,1149,-877,1600,2997,-105,261,-497,2409,3377,-205,391,-755,2925,5146,393,-545,-469,3812,5507,-90,-66,-1185,1667,3013,-389,-336,-1267,2429,4319,-168,-449,-910,2873,3816,-171,-249,-1110,2908,3609,-396,155,-978,2269,4129,-58,-888,-1000,2902,4255,-174,-4,-1106,1215,2210,-412,-194,-1060,3156,4661,70,-223,-805,2283,4187,73,-717,-1166,1816,3160,-193,-631,-1108,2845,3897,-290,1381,-861,2929,4103,-128,-407,-1215,2663,4515,-250,310,-1174,1351,2932,-311,-246,-907,2444,3288,-257,1163,-1098,1898,2753,-1805,-1974,-2738,2491,12326,78004,731776,3119789,4903758,4999662,4910572,4499352,4265295,1221084,212852,1031885,302329,-66093,-104323,-8647,164716,79380,776,10041,913,1463,2151,563,7874,7136,381,-33,747,7796,9035,1697,-967,211,7400,11285,1020,-1504,-1045,4329,7269,-928,-1921,-2775,3717,6108,-1142,-1271,-2605,2070,3249,-798,-318,-2176,1376,2036,-376,2514,-936,1114,2123,-396,803,-737,3137,5093,-84,480,-437,4560,8225,1269,-964,448,8568,10968,-277,-58,-1313,-190,1002,-1029,-65,-2204,2479,3340,-151,850,-744,2644,4193,-173,-52,-831,2835,4412,-62,-184,-1080,2015,2673,-199,1058,-928,2349,3686,-256,64,-676,3136,5464,62,-452,-986,2550,3930,-218,-62,-1125,2255,3994,-58,-597,-935,2930,3815,-288,786,-1089,1392,2647,-410,380,-986,3021,4360,-133,-64,-829,2726,4440,-74,-252,-960,2615,4061,-154,-308,-980,3330,4938,-65,-554,-1042,2544,3803,-467,-62,-1286,2146,2918,-283,-200,-1040,3135,3797,-183,-13,-897,2677,4727,98,-806,-735,4182,6277,-40,-260,-1259,1625,3144,-599,-453,-1563,2934,4384,98,-1122,-509,5223,6423,-501,1140,-1173,4967,6956,248,-1758,-1640,5371,7148,-384,-158,-1956,-223,1064,-420,2575,-1440,3299,4389,-162,241,-532,5165,7467,440,-747,-1120,2760,4912,-1024,-1899,-3578,-2192,-2078,-2122,-2828,22571,617533,2817899,4732674,4717203,4763262,4809316,4726262,2493327,-49079,1196094,341380,41981,102890,153631,48438,20317,3138,-25824,-3713,1281,6015,5674,71,229,1813,7826,6242,135,-808,544,8807,11536,701,-1158,-180,8250,10388,-660,-1626,-1337,4964,6141,-578,-82,-3004,1011,5654,-1361,-2219,-1956,3516,6689,-516,1471,-1449,-373,335,-259,2162,-1663,3675,5873,698,-704,413,5970,7578,-407,108,-1108,3227,4935,87,-1607,-822,8382,11317,-378,-928,-1717,1812,3288,-1130,-150,-1904,728,1331,-329,1670,-1262,1006,2415,-155,385,-381,3537,4374,-132,266,-557,3052,4434,-343,579,-852,3740,5286,-155,-237,-943,4030,5346,0,-341,-1256,1592,2415,-287,1257,-1214,2595,4453,-126,-120,-627,3524,4884,-318,165,-1206,1852,3744,-66,-305,-1024,1847,3735,-306,-510,-942,2178,4455,74,-501,-694,5515,5437,-296,-58,-1198,1730,3020,-567,994,-1298,1453,3333,-122,-401,-831,3942,6105,279,-207,-850,2515,3796,-346,-65,-1267,911,2123,-326,436,-1046,2407,4179,-147,-404,-453,7245,6104,-294,-370,-884,6998,8519,364,-1627,-1336,2688,3265,-421,1506,-1779,217,648,-154,2679,-906,3097,2927,-166,1061,-283,4224,6017,-162,-677,32,6342,7150,-942,-1518,-3259,-1957,-2128,-2767,-3394,46555,629891,2304528,4879448,4857214,4899525,4904015,3440309,386325,533607,351335,-80853,-89490,74385,177042,24611,-4,-11699,-7452,1840,-404,6034,7779,801,-69,2831,8742,7567,392,-780,-405,5449,6817,-177,-1090,-1082,4204,7464,-234,-1852,-1195,5918,8149,-748,-1435,-2144,3786,5489,-1185,-1736,-2500,3718,4094,-702,516,-1915,814,808,-109,3029,-1378,2865,3923,-240,169,-332,3433,4003,-295,918,-865,3472,4197,-335,726,-660,2472,3960,-382,1359,-968,7894,2380,-220,1583,-825,2769,3148,181,867,-192,2986,4131,-305,532,-469,3220,5341,-328,-712,-322,5200,8698,-345,-389,-1151,2898,3638,-654,-62,-1584,900,1296,-173,1571,-1168,2525,3813,-63,-55,-287,3318,3242,-341,1338,-997,2442,2979,-299,945,-346,5009,6536,113,-787,-445,4755,6972,-487,255,-1356,2074,3447,-539,-294,-1502,4002,4990,-197,-272,-1148,3164,4505,-175,-851,-1045,3621,6108,-58,-1095,-1028,3694,4065,-477,83,-1475,5574,5973,-110,-1192,-969,5681,5745,-684,559,-1731,875,1680,-639,944,-1382,2163,3090,-260,416,-601,3727,5357,29,-222,-680,3371,4333,-1629,-2164,-3070,-2150,1190,2308,18161,348812,1799853,4993003,5141448,5006089,4839157,4560647,1161627,42575,673761,29252,-115572,-24717,130295,197173,-5850,1540,2323,1071,1751,689,7726,7949,202,-85,960,9048,7001,20,-959,118,7602,11056,989,-1594,526,11632,14738,-101,-2449,-2342,6196,8237,-1648,-1874,-4316,4244,5314,-1296,-1866,-3124,4215,5383,-1076,145,-1609,17,1159,-569,1417,-1567,2234,3812,-172,1041,-360,4651,5617,-30,72,-949,3743,5151,-337,21,-1125,1812,3216,-287,163,-1036,2688,3051,-223,806,-789,2361,2614,-339,518,-794,2614,4024,-302,-10,-527,5214,7351,378,-519,-806,3563,4938,-362,-56,-1553,1374,2106,-377,1023,-1248,2512,3095,-288,649,-561,3803,5628,-64,-502,-638,5129,5704,-400,529,-1220,2027,3298,-500,714,-1156,5440,8233,938,-969,-632,5407,8305,-613,-88,-1792,733,2927,-655,-905,-1916,4282,7705,-76,-631,-1016,3704,5478,-473,-819,-1933,3344,4115,-492,-695,-1624,3145,1814,-453,-68,-849,1980,3600,-477,-863,-86,4493,4572,121,-102,-1062,4815,5834,-463,-764,-843,6758,10374,1305,-1703,-1424,3759,4704,-524,1331,-2199,-189,1179,-484,2493,-1365,4537,6243,276,-645,-566,5147,7374,-312,861,-1326,2691,5498,-71,-2130,-3048,2669,2471,-2035,-2776,-1190,103269,930442,3234368,4623119,4662489,4809286,4741504,4218906,978955,370018,931878,250673,91461,91467,39596,12659,44920,-12920,-14433,3627,4672,3818,-1,299,2478,8273,7325,708,-728,310,7535,10512,186,-1141,-680,5796,9449,23,-1855,-1668,7108,8748,-748,-1584,-2934,2646,4656,-1199,-1803,-2804,2610,3852,-753,992,-1282,518,951,-260,2575,-1340,3433,4756,166,-39,-230,5461,7886,269,-959,-905,4989,7624,6,-763,-1476,3235,4311,-550,20,-1781,2521,1745,-384,-212,-1410,3774,4520,-304,323,-565,1432,2362,-267,2310,-1138,3798,5510,199,-482,-483,4352,5911,-367,92,-1313,1951,3794,-364,306,-1097,2183,3447,-338,543,-1106,2692,4387,-181,-61,-850,2864,3677,-345,893,-1033,2256,3684,-280,194,-859,2207,3636,-279,-141,-916,4399,7019,828,-719,-319,5103,6449,-318,-143,-1644,1170,2923,-670,-66,-1580,2505,3996,-233,-64,-972,3153,4321,-105,-263,-1041,3113,4048,-448,123,-1122,3367,5216,-170,-732,-797,7104,9472,2,-602,-1397,2690,4348,-631,-77,-2082,2515,3791,-330,-576,-1259,4080,5897,4,-397,-1095,2763,4583,-525,-58,-1460,1927,3494,-401,143,-1215,2559,3304,-337,405,-925,3465,5503,514,-856,74,7456,9063,180,-854,-1272,3960,6881,-707,-1150,-2135,13,2326,-456,306,-1976,1084,2582,-557,695,-810,2875,3091,-377,916,-873,2101,4207,50,-329,-550,4144,5971,-529,-1945,-2897,641,487,-2567,-3111,9446,458258,2400084,4573040,4510216,4544731,4624630,4624595,3806712,-103740,1574202,677527,144534,78961,114916,36969,12203,14083,-34894,-9784,2327,5586,5997,830,-98,1614,7529,7172,398,-874,-312,6001,9046,287,-1046,-225,7619,10786,259,-1850,-1735,6584,8200,-1091,-1138,-3086,2184,4190,-1203,-801,-2518,2413,2911,-296,2765,-1327,621,1318,7,3256,-937,4199,6497,107,-232,-264,6049,8405,232,-984,-695,6397,9052,927,-1565,-810,7919,11670,-118,-2194,-2062,4471,7080,-1110,-169,-2635,244,1381,-872,1773,-2076,1811,3510,-186,-50,-851,4054,5540,-123,722,-933,2192,2473,-325,2010,-982,1389,4097,30,-305,-658,3043,4606,-146,696,-874,2490,5595,310,-438,-835,3312,4290,-340,384,-1352,1387,3151,-356,857,-935,3533,4716,-70,403,-926,3689,7143,93,-278,-1126,3066,4774,-132,-282,-1544,3855,6607,396,-846,-994,3978,5823,-585,16,-1683,1144,2932,-548,-75,-1407,2529,4515,-80,-528,-826,4315,5593,25,-419,-1090,3767,5728,-406,-446,-1411,2270,3793,-488,530,-1575,2103,4651,37,-367,-992,4478,6766,211,-575,-1287,2250,4120,-478,-232,-1471,1409,3243,-291,371,-1148,2224,5584,579,-823,-833,3613,5727,-277,-495,-1458,1529,2343,-497,1075,-1359,2924,3389,-504,777,-807,3212,5631,-102,-1172,962,9723,5638,-133,2427,-1137,1575,522,-1453,28,-2041,2773,2531,-2329,5681,-889,17327,92733,654331,2397124,4965517,5087292,5236235,4616913,4104950,1088784,98738,778529,277717,31762,-11255,17572,98871,89330,-2872,6102,6470,1425,-38,467,2133,7789,7376,505,-356,654,8153,11184,431,-656,-821,4956,7670,112,-1857,-1684,8392,12371,189,-1791,-2013,3765,5279,-1213,-400,-2690,1753,4538,-758,-655,-1848,2414,3880,-228,350,-1533,1227,3149,-297,601,-992,2152,3259,-199,405,-921,3458,4779,187,-477,-596,3805,5512,-254,560,-1075,2567,3206,-481,674,-1192,1910,3562,-272,1100,-940,2589,4642,-153,305,-778,2540,4681,-178,351,-1042,2807,4867,180,-179,-982,3134,4319,-239,890,-1047,1818,3330,-275,375,-1016,2577,1532,-203,1332,-891,2862,5148,224,-403,-90,3611,6456,-59,71,-1141,1793,3325,-194,459,-1182,1533,4071,-210,-6,-968,444,4777,98,-144,-977,4400,5081,239,-369,-1040,4270,7278,627,-670,-1277,1748,2528,-466,449,-1761,2021,4156,136,-495,-779,4633,6689,-44,-648,-1211,4185,7241,-11,-305,-1409,3393,8883,1482,-1709,-1830,4482,7111,92,344,-1978,-484,1475,-380,3795,-1625,2017,4653,168,-639,-737,5030,8361,96,21,-1071,2538,4627,-363,-770,-2652,174,-381,-1355,-689,350,58324,390726,1430465,3391968,5068785,5207467,5207461,3438636,611065,74309,462727,53230,-11402,55066,41213,23000,37492,-2668,-11124,1355,3511,5278,981,-134,1643,8779,9303,1029,-1005,-477,6470,11168,886,-1256,-1254,4769,9118,-524,-1361,-2652,5429,8527,-97,-2244,-2896,8794,10917,-86,-1990,-2807,3880,6514,-848,-1344,-3038,2902,5845,-898,-15,-1582,703,2855,-145,-1461,-425,715,206,-79,2656,-881,3624,1619,-60,3856,61,1781,2927,-179,2085,-719,3610,5670,-125,1035,-425,3849,5822,-90,623,-855,3227,5059,-82,1029,-1052,2959,6672,611,-1031,-868,4679,6983,-252,795,-1383,1213,2698,-455,365,-1302,2644,4641,139,-244,-1085,2774,5223,119,191,-910,1537,3508,-153,311,-1196,1891,4457,132,124,-958,2444,5084,219,-63,-1066,2305,4006,-118,71,-1069,1578,3929,-21,-9,-945,2109,4329,382,-508,-973,4104,5492,196,-42,-1057,2768,6354,619,-1544,-992,6830,11074,647,-483,-1637,1216,5058,321,-2455,-2758,3463,6021,-279,2432,-1146,-54,1379,-647,1899,-1481,2388,5737,192,570,-936,2646,4427,-794,604,-959,2886,6735,993,-752,-1471,3259,4241,-2407,645,-3621,15513,87258,504447,1954595,5092733,5230315,5335851,4921072,4222905,1137196,12756,810569,310107,23013,-54506,-44445,71550,88062,2210,3047,6107,1709,-123,1831,1553,8803,8824,754,-32,-260,6078,12088,2588,-1134,-343,7337,12243,874,-504,-2201,2274,7359,937,-2773,-2576,9571,17259,2488,-1781,-2991,1003,4404,-1526,-658,-2914,-399,2516,-749,1284,-1137,1194,2512,-122,133,-925,2098,3689,-33,1248,-696,3390,6136,1570,-923,-232,5640,8544,-253,404,-1299,693,2527,-691,1097,-1464,2266,4463,28,749,-476,911,3658,-65,557,-842,1370,3481,175,1103,-782,2677,5966,1051,-436,-771,2913,5657,-98,844,-1097,1606,5140,711,-704,-1140,3311,7339,574,-185,-1368,1779,3782,-61,-140,-1276,991,2888,-160,230,-1140,1391,4662,510,-29,-797,2554,5152,988,-661,-1198,3700,7287,505,-426,-1225,1343,4417,-135,838,-1454,1935,5593,962,-938,-1368,4029,7520,74,142,-1307,1194,3794,-88,-96,-1446,2486,5657,714,-752,-1281,4573,9198,1569,-1022,-1384,3518,7322,-38,-334,-1442,-160,1693,-395,-829,-2099,2992,5978,692,-382,-702,4582,7000,356,-756,-1396,2065,4936,13,-680,-1823,1350,3675,-203,2258,-1186,1449,3546,-233,677,-988,2409,6133,776,-740,-1016,4775,9397,221,-2056,-3293,-762,-420,-2450,-3875,14292,494163,2437354,4672055,4570035,4600427,4648200,4577111,3285938,-125696,1463437,509113,32764,59273,133757,67886,-11369,2948,-27650,-7392,247,3351,4397,61,1057,646,7125,10194,988,-395,-421,5883,10826,1972,-1133,-1528,6735,13981,2462,-1653,-1707,6731,14341,1093,-2036,-3602,2017,5623,-962,294,-2547,-748,2178,-661,1523,-1625,933,4131,-174,1402,-812,2188,5478,1037,-621,-1032,3932,7863,654,-529,-874,3779,7597,1900,-1316,-1358,7200,10158,2371,-480,-1879,1610,4686,-529,-848,-2128,470,3884,-196,837,-1221,706,3560,-173,1134,-813,2036,4581,434,-181,-997,2581,5329,325,326,-834,1720,4332,415,-192,-873,1191,3687,78,799,-1053,1912,4747,867,-289,-849,2779,6838,683,-185,-763,705,2617,-93,439,-966,767,3113,127,1024,-771,3093,5661,681,-243,-814,3478,7665,717,-752,-1253,2918,7280,892,-149,-1017,1227,3779,347,-560,-1701,2419,6129,1054,-545,-1171,2341,6451,963,-891,-1560,3035,7189,370,-215,-1181,1115,4237,321,-444,-1412,2108,5758,985,-486,-708,854,4394,315,551,-1062,1490,4791,887,-141,-1074,2542,5892,981,-373,-1269,2860,7115,642,-723,-1145,1854,4941,-68,780,-1537,2969,6275,1632,-614,-1200,2766,5561,364,334,-1080,720,4781,1260,-1118,-1281,3414,6933,376,1195,-1331,3616,8888,2316,-1474,-1626,3258,8569,-141,1630,-1477,-721,3063,318,79,-1147,2330,5396,713,-128,-940,1069,5465,1124,-110,-821,1562,3870,-991,-2704,-2795,-2366,112,-2039,15021,618779,3347363,4663629,4665561,4517398,4493881,4551795,3334715,-118769,1697289,522124,-30064,-21353,125404,184778,38583,-3910,11713,-5411,3132,0,5826,9174,2034,-42,-61,5705,7978,918,-302,-991,2846,9000,2613,-1060,-1058,5461,10783,1628,-345,-1728,698,4158,-25,-981,-2280,1741,3466,1096,-772,-192,-523,1576,787,5763,-584,450,3311,1159,-28,-466,674,7227,668,-10,-885,1853,6840,1290,-970,-714,9089,16081,5838,-1159,-1688,4486,10308,1897,-2634,-3745,970,7303,400,-256,-1321,-1306,1812,-540,990,-974,-387,3006,264,1304,-800,1699,5587,1436,-207,-726,2201,5299,147,1422,-788,953,4949,941,251,-706,2131,7732,1548,-427,-1029,1693,6623,1232,-288,-720,152,2730,0,1449,-912,864,3349,544,38,-623,2913,8006,2155,-381,-575,1458,4475,672,602,-930,294,4336,837,45,-734,1759,5969,1455,-130,-679,1699,5171,1382,-364,-995,1063,5099,1196,-193,-740,761,5094,1056,-517,-819,-246,4878,575,377,-790,1181,5306,1977,-272,-1087,2153,6619,1505,120,-505,-55,3568,531,514,-777,761,5828,47,-275,-822,1448,5433,1086,-401,-1214,4221,7203,1989,-793,-1197,2530,6381,1192,-845,-1277,571,4156,272,1164,-768,448,3376,549,210,-372,843,5563,999,-79,-299,490,3567,797,642,-713,1768,6189,2534,-1281,-2360,104,921,-2211,-1227,-3493,57637,629114,2263553,4871948,4907812,5026632,5051259,4255301,564592,371812,428221,31570,49738,159327,102836,16776,18374,-12109,-10409,-48,3351,8294,2605,-99,75,5294,8501,2198,-470,-993,3783,9755,5978,-691,-856,6110,13051,6193,-1472,-2503,1537,8867,2591,-2669,-3172,-420,8314,1176,-1303,-2345,-826,3997,633,910,-612,-333,4233,855,-133,141,-378,2990,374,1614,-112,24,3405,1087,384,-464,1958,5732,1508,1592,-742,2352,7819,3435,-664,-583,645,5628,266,-1162,610,-892,1629,242,1466,-284,595,576,858,281,-206,1931,5883,1689,263,-406,1975,5813,4772,-414,-729,1939,6960,1516,-339,-606,-842,3647,330,1991,-28,111,3772,1820,-170,-117,996,4221,722,870,-293,206,3719,2808,-502,-624,2104,6742,2546,-166,-106,2,4059,1752,-296,-575,-99,4226,1936,48,-110,-98,3828,1153,92,86,-46,4220,1588,-170,-675,935,5092,2536,-160,-289,577,5923,1938,-730,-976,896,5619,2149,204,-434,-27,3326,811,-84,-419,381,6947,4348,-725,-1078,2012,7052,3713,-578,-1239,-81,3840,964,820,-357,-52,5979,2513,-779,-713,100,4266,1176,749,209,-594,3257,1367,138,339,357,4964,2503,-361,-523,110,4203,1743,-2394,-132,-2403,7826,12522,108770,886659,3310052,5137045,5198203,4841651,4464262,3698014,326783,778416,605454,57326,-117352,-93732,70217,169506,18369,13049,10806,-80,4048,343,10337,10621,4078,-228,-261,3161,9808,4654,-1254,-1071,2047,11086,8009,-885,-1632,2338,12004,8388,-1648,-2546,-910,8685,6101,-1819,-2782,-1845,6211,4048,-665,-580,-2281,1487,-110,2768,254,-1558,4753,2697,-158,58,990,6288,2196,32,589,-108,5626,3203,-467,-621,693,5928,3907,-163,119,-486,3825,2046,-225,-43,-598,3599,1394,414,395,-266,3428,1799,-64,-45,585,5833,2060,134,505,353,4106,1977,-207,23,180,4091,1779,85,688,134,4551,2502,-381,-106,810,5706,3175,-451,-250,-108,4208,1931,-78,598,-152,4335,2500,-497,-118,223,6061,3755,-316,223,-226,3416,2373,1952,-1326,1079,8728,6182,-553,-1103,2074,12706,2261,-991,-772,-1234,3296,1724,-438,571,-238,4972,4029,-820,-993,-611,5684,4562,-544,-425,-873,3952,2975,-504,-743,-654,4725,2695,-353,-73,-704,4638,3281,-706,-757,-10,6392,5286,-622,-807,-288,4419,3342,-526,19,-1312,2931,1918,17,875,-725,5011,4239,-545,-744,1387,10796,7562,-712,-427,-717,5074,5463,-1328,-1651,-1154,5411,4778,-217,972,-1641,3025,1918,-207,1705,-1207,5108,4472,-584,-654,415,6717,4989,-455,-189,-441,4691,3984,-1439,-1881,-2807,1935,-80,-2600,-3654,11539,374557,2005714,4706340,4664439,4714903,4798304,4667547,3815956,-57475,1391435,638329,144536,96173,75734,-6524,30723,23094,-43442,-6766,4143,6341,4417,-40,-113,4285,12207,6354,-500,-278,86,5728,6075,-569,-1656,833,10019,10445,1809,-1610,671,9012,7518,-1397,-964,-2667,702,3072,-740,676,-2629,3389,3481,-623,514,-1357,2631,2150,923,306,-1017,2747,2120,400,-163,263,7732,6552,21,-953,2851,14950,11480,-581,-1545,407,6620,6516,-1543,-2417,-2437,6310,5383,-996,497,-2190,2255,1230,-424,1038,-1995,4384,3033,-262,1136,-273,4428,4415,-571,244,-508,3712,3090,-193,916,-651,4761,4305,-469,-59,-153,4293,3765,-559,189,-810,3661,3434,-539,301,-574,3801,3031,-471,228,-581,4365,3731,-498,381,-355,4796,4300,-591,-149,-655,4913,5129,-623,-350,-647,5185,5646,-590,-154,-1087,3921,4047,-740,22,-1200,5858,5804,-572,-503,-974,3640,3602,-593,705,-1422,3934,5412,-550,-710,-136,6859,6823,-613,-1072,-1226,4898,5554,-843,500,-1470,3136,3026,-703,-388,-1581,5232,5278,-670,-279,-859,4969,3307,-580,180,-1204,3490,4503,-542,-632,-390,6086,6297,-466,-658,-933,3552,3534,-726,-404,-1219,3399,2726,-632,784,-727,4875,4849,-60,-422,-26,7083,8220,-683,-431,-1190,4920,5499,-907,-156,-1820,2171,2808,-562,-78,-1472,3663,4110,-403,7,-360,5511,6005,-603,-1344,-2027,3035,957,-507,-552,-2077,27302,338313,1567429,4631717,4870126,5048900,5033219,4478032,2517816,-79805,1004885,434958,140002,79405,-2228,43548,83044,31068,-18107,7091,6198,3537,-58,125,3997,12429,9514,27,-621,1095,10577,12504,255,-1747,-197,10152,12225,-1032,-1861,-2105,5186,6770,-1690,-1397,-3442,5479,5988,-1266,-1449,-2459,6138,6824,-899,668,-2010,3120,4125,-1064,-55,-1755,2592,3135,211,243,-1359,2457,2964,-301,549,-363,6421,6168,-350,-783,304,6886,10630,-220,3122,-559,8583,10022,-7,-1898,-2325,8556,10344,-508,2918,-2591,476,2541,-1034,122,-1941,4965,6804,-107,-498,-1100,3068,5007,-461,508,-1309,2682,3619,-514,88,-1244,2552,3860,-368,1549,-1040,2505,3933,-301,649,-884,3863,6277,-181,590,-969,3412,5711,-82,-149,-1251,4532,5050,-344,219,-1277,3924,6431,-387,-389,-1070,4493,6843,-198,-925,-1609,5123,6189,-530,1120,-1673,4345,6158,-410,-657,-1605,6312,9032,-332,-499,-1838,3335,5180,-666,1128,-2004,4524,7436,174,-1570,-813,7707,10314,-614,-95,-2001,2918,4883,-941,-1347,-2311,6380,8977,-44,-569,-1813,3537,6229,-558,-1062,-2325,3731,7338,-626,974,-1864,3558,5100,1365,-763,-1978,5098,9631,314,-958,-1479,1257,5491,-640,2555,-2179,3123,5687,-444,-345,-1624,5226,9233,223,531,-1632,4772,9271,-31,-3543,-3909,-1478,6955,1896,38267,599925,2556103,4892814,4826482,4649581,4437387,4185992,720541,411933,637976,-19879,-152043,-87980,119101,187406,1931,6235,1948,2541,4198,-265,10054,11770,1489,-170,1626,12545,12006,996,-1569,-352,7769,13377,-24,-1137,-2176,5068,9768,43,-2939,-3268,8115,13495,767,-2200,-3452,2939,7563,-1445,-624,-3107,963,3148,-956,1044,-2268,1802,4390,-280,1150,-1073,1680,4981,-81,529,-1166,2365,5552,363,-66,-1110,4389,8236,989,-247,-1080,2187,4329,-322,1361,-1721,1278,3879,-65,603,-1083,3390,7398,318,280,-1019,2669,5802,12,383,-1475,2369,6762,751,191,-1301,3741,7708,824,-527,-1625,3500,7545,394,-265,-1591,1527,4648,-309,1426,-1335,918,1456,-118,629,-1316,912,6556,447,291,-432,2915,5955,71,-75,-1348,3364,8065,1079,-612,-1342,2704,5598,-133,792,-1643,1803,5787,267,124,-1344,3760,8587,1685,-1208,-1647,4950,11110,939,-910,-1931,2050,5482,-560,2310,-1597,1437,5034,221,-92,-1454,3472,8788,1440,-767,-1557,3729,8430,1024,-496,-1708,2366,5865,334,-981,-2014,2720,7186,444,-392,-1598,1828,5555,261,-79,-1778,3349,8055,1654,-1045,-1632,2484,6221,231,-878,-2130,2404,6619,-73,680,-1217,2560,4780,-147,-407,-1653,2843,6441,558,302,-1152,2057,5892,876,-329,-1083,2418,8117,1281,-1806,-3518,-532,409,-2188,-1888,-3528,125684,1148511,3934383,4636463,4671416,4787395,4796120,4356528,768857,669936,912749,207384,80016,114114,53073,-12661,25575,-21970,-19473,413,4008,9402,482,901,-64,11372,14178,4051,-695,-1362,9038,16255,7557,-1568,-2200,3685,11262,1092,-2107,-3197,1093,9613,340,-1921,-3310,2892,8286,-10,349,-1795,549,4691,-97,1229,-903,580,4199,182,1744,-570,700,5255,1080,-114,-966,2915,8590,2248,-706,-1151,4579,12965,2606,-1218,-1771,3675,9630,483,-937,-2604,1491,6310,277,-509,-1482,398,3856,-79,1365,-1155,1122,5101,1043,317,-988,3807,9436,1660,-66,-380,346,3341,162,1337,-1102,343,4340,979,69,-622,2103,6408,844,803,-846,2561,7820,1579,-353,-950,2041,7603,1318,305,-815,264,4269,771,-12,-821,989,5961,1505,-134,-845,1751,6628,1973,-254,-1445,1754,6629,1690,-320,-985,1059,5681,7,208,-934,611,5460,1482,-780,-1070,2543,8080,818,703,-814,1523,5061,1593,-549,-1207,2301,6928,1491,280,-678,385,4792,2071,-640,-951,1972,8540,2674,-679,-1273,1402,7446,2186,-17,-860,295,4835,1213,-347,-1224,983,8355,2924,-799,-1038,670,4204,117,1365,-1322,1200,7414,2792,-670,-888,3838,11055,2957,-1030,-1031,-120,4055,744,1077,-320,-653,3769,1580,-81,-356,898,5330,1216,245,-1648,-702,4320,-1435,751,-3321,6537,135638,987250,3383146,4840710,4952655,5098288,4822187,4281683,1078731,294474,1022799,358606,102814,29272,-8816,69087,87319,-11624,-4776,8545,5645,1221,102,-41,5644,8397,1503,349,-591,2664,9147,5309,-474,-747,7682,17513,8084,-1235,-1957,1757,8429,2718,-1938,-2438,-1500,7476,3220,-890,-778,-1604,3126,-48,1862,167,-1346,3032,571,1022,-212,1161,4476,1489,-247,2831,2510,11129,6137,-473,-574,7789,23691,16310,-1214,-2432,2358,10114,4261,-1949,-3199,-2845,6073,1555,-1082,-1362,-1946,4724,1654,334,-322,-725,4136,1213,416,285,-213,4679,1201,1114,405,242,5997,2756,-448,-463,1132,7064,2858,312,183,-93,4271,2102,-462,-337,-98,4826,2397,199,26,-92,4341,2153,-63,548,155,5401,2022,138,20,151,3974,2241,35,335,144,5175,2587,-324,271,131,5178,2192,-81,-389,889,7459,5037,-461,-398,748,6560,3724,-989,-1272,4,7377,4224,-398,-147,-637,2853,1427,202,506,-500,6859,4346,-606,-487,784,8458,6179,-884,-1445,651,8493,5931,-538,-214,-1208,5383,4659,-1494,-1693,-1130,4280,1312,623,552,-1179,3134,1741,181,728,1002,7456,7767,-894,-1007,9527,7907,5846,-360,320,-1672,3948,2743,-2749,-2105,-2929,1004,-1756,-388,-3436,32715,421875,1769166,4358917,4865538,4955055,5053420,4682322,921278,89041,473226,29852,4429,182818,137711,4383,3243,-2660,-13950,-8,2267,9759,5267,-102,-45,4835,13466,7754,-513,-1125,1817,11313,10609,-820,-2012,486,9456,10090,-1466,-2211,-1370,9327,7909,-1783,-2102,-2646,9041,8143,-1793,-2820,-2064,7538,5539,-523,52,-2729,2077,673,965,2259,-1798,5770,3858,-202,1551,-45,5535,4557,-565,187,-677,4702,3473,31,1217,-621,4130,3616,-281,941,-226,4637,2439,405,936,-722,4034,2310,119,1071,646,7314,4251,-377,495,614,6859,4779,-666,2439,623,10202,10138,-488,-1489,637,7192,8456,59,2010,-2359,2086,1890,-748,1657,-1582,7050,5124,-433,1154,-134,5082,6122,-571,-456,-249,7475,7122,-825,-75,-903,5421,3969,-545,1283,-1310,5528,5573,-820,-530,-550,6600,5590,-658,180,-1211,5118,5849,-847,-1501,-100,8231,7258,-641,-549,-666,7481,6555,-1224,-146,-1696,6122,6027,-1264,-952,-2176,2888,2305,143,1564,-1608,3718,4222,-594,570,-108,5634,5681,-635,-519,-1193,5117,4646,-1982,-1185,-3419,-179,7003,10527,62142,606062,2289338,5333684,5091430,4903067,4639454,2547382,275797,561927,378867,-143255,-262277,-158526,76011,117832,-11526,15794,3933,4204,3240,-1320,9307,11775,472,-366,2737,14306,11119,-522,-720,-1024,7602,9772,-605,-2482,-416,13424,17328,-903,-2386,-1739,9600,15019,-2110,-3759,-4510,8330,8008,-1353,-70,-3615,2460,3046,-1567,-51,-2787,4909,4852,-387,-81,-1570,2479,2555,-208,3100,-1061,11603,6519,-223,-57,-236,5126,5454,-281,2679,-1649,3154,3204,-316,1360,-908,4047,4900,-418,1245,-573,5319,5079,-296,1756,-854,5077,6699,-483,-155,-974,4608,6487,-318,-435,-1254,4699,6271,-402,-85,-1203,3677,5201,-714,9,-1548,5617,7185,-470,-301,-1296,4542,6284,-653,411,-1834,3026,4642,-680,457,-1574,3217,5804,-284,-600,-1081,5508,7345,-339,314,-1372,3686,4562,-658,275,-1765,4172,6101,-492,421,-1226,4814,7523,-39,-1038,-1188,7195,9547,-563,-78,-1838,3183,4853,-833,-583,-2301,4376,6009,-439,-1125,-1091,7897,11071,-223,-1466,-243,10362,12559,-453,-1878,-2925,3806,5372,-1111,1073,-3269,1576,3638,-506,2348,-1872,5687,6902,-427,-18,-1327,5010,6729,-503,-698,-1522,6378,8370,-1328,-2662,-3496,-928,3898,-586,1059,260582,1810712,5013277,4793491,4688586,4530991,4552751,3180783,-68809,1303129,397215,-84583,-102997,68148,205670,5513,-4743,-686,-6391,3946,-459,9442,13867,941,-93,1504,13706,13651,657,-1390,-1089,9245,15317,846,-2070,-1514,8712,14233,-901,-2049,-3821,5284,8195,-1420,-2237,-4246,7971,11201,-427,-1512,-3051,4049,6992,-1126,1899,-2702,1328,3994,-839,623,-2211,3856,7712,74,-246,-1340,4999,7596,228,-1212,-1120,7429,11839,388,-1193,-1769,3661,6591,-1103,955,-2861,4051,6460,-370,573,-1987,3712,7089,-361,205,-1960,3490,7793,215,-139,-1532,3020,6607,-112,267,-1600,1630,3623,-318,2615,-1592,3034,6863,146,251,-935,5951,9473,238,-512,-1333,5342,10294,398,-996,-1821,4416,7876,375,503,-241,1796,4343,-500,492,-2045,3603,7698,2037,-350,-1365,3600,7528,-281,170,-1823,2407,5727,-226,-93,-1670,3819,6443,387,-827,-1527,5731,8611,-240,-316,-1588,2981,7075,-208,-360,-2126,6556,7981,549,-612,-1963,3282,7273,-160,260,-1782,2012,5790,19,65,-1867,4567,8789,1366,-899,-1541,5420,10779,489,-799,-2154,3491,7406,-447,410,-2452,2105,6924,108,-528,-2062,2875,8507,67,293,-1733,2636,8149,1141,-836,-2081,4918,11943,1228,-414,-2097,3161,8663,933,-993,-2737,4261,11626,2066,-1696,-2486,2363,7251,-393,-726,-2641,848,5601,-541,1343,-1815,4341,8514,1225,-778,-1825,2695,6025,-283,2621,-2018,2527,8564,1449,-539,-696,4881,8174,181,3705,-2900,5512,15731,4320,-3270,-3745,8345,54599,346533,1772908,4607376,4720177,4872962,4708410,4192563,3597757,31429,1675708,788700,224323,-48264,-104908,-14744,162867,59675,1501,12516,5087,3,4835,306,11455,13983,2397,-399,157,10582,18917,2301,-1230,-1878,5178,10938,760,-1918,-3371,6420,14269,2085,-1949,-3079,5745,12508,391,-1598,-3095,256,4061,-678,3293,-1775,-63,3582,-203,3204,-1185,3570,8742,1363,-49,-1097,3385,9187,987,-154,-1684,4400,13060,5243,-1372,-317,12802,23669,4271,-1479,-3246,3024,10904,15,-3463,-5063,1277,10305,-255,-83,-1872,-973,2753,-504,1733,-1714,1784,6873,1470,54,-923,1740,6810,814,638,-1121,1189,6545,1096,186,-943,1730,7447,1555,-6,-1015,1437,6385,1142,1046,-1044,812,5389,934,423,-785,1181,6498,864,328,-823,1718,7113,1712,116,-890,2375,6862,1192,45,-1037,1026,6463,1729,-159,-1171,5385,8436,1409,30,-1022,1485,7640,1962,-557,-1781,4556,10588,2842,-475,-1200,1319,7987,1300,-462,-1706,701,6688,1450,292,-1325,1946,9194,2966,-1094,-1615,3268,10078,1575,-385,-1491,280,5903,1014,-84,-1374,1855,7530,1587,-112,-1020,965,7046,2786,-1190,-1954,4301,12521,2536,253,-788,276,6290,1789,-1544,-2099,1179,8914,1760,858,-836,218,5011,1440,-431,-874,1022,7004,861,1340,-822,1081,6949,2308,-187,-1004,2943,9195,1866,-1280,-2804,-1270,1621,-2270,-548,-4112,55817,721896,2632752,4786243,4797329,4910700,4977323,4641363,931002,286692,619848,125236,69791,184088,97358,-2161,16850,-11102,-16737,-134,4285,10906,2860,109,-9,12007,17921,6378,-776,-1390,6265,19081,13961,-1872,-2514,2223,11715,5785,-2388,-3941,-900,11065,6538,-1784,-3197,-326,8791,1767,-93,-647,-2343,5142,506,-2291,-2113,648,8646,2902,897,-366,641,2762,796,1436,-324,307,7081,2229,96,-722,1338,8385,2681,-262,-1084,1498,7827,2132,-416,-1071,1413,6968,1354,467,-306,2,4216,707,2500,-211,514,6793,2697,33,-54,637,7401,1879,585,-132,173,5778,2868,-65,35,629,6378,2814,56,196,-276,4223,1588,832,187,-285,3966,1504,646,-174,628,5071,2296,79,-174,863,6364,2154,140,-1,370,5691,2746,-136,-59,324,7389,4494,-453,-531,489,6803,3419,-88,-303,-320,6537,3351,-469,-299,188,7739,3364,-605,-685,-198,6451,3235,32,-477,-215,6381,4147,-885,-1212,672,9392,3465,490,470,-437,5741,4039,-992,-1343,463,9853,6147,-286,-175,-1190,4132,2893,-1063,-1889,772,11556,7778,-564,-798,340,5236,1325,563,157,-1895,4445,2213,-80,573,-6,7129,4295,-335,336,77,6415,3548,-486,-317,-1178,6094,1492,-590,-859,2116,38843,159031,718671,2281303,5081931,5266892,5250881,4551446,2083464,96812,628141,364897,71703,-27307,-78705,-21732,94816,53295,-11539,11024,5755,1250,329,36,6393,14666,7133,-606,-673,3296,15837,12452,-534,-1947,1940,13328,11221,-1542,-1615,-2470,7074,5730,-2154,-2845,-1928,12848,11988,-1527,-2498,-637,9129,7319,-1333,-542,-3397,3742,2532,-658,1043,-2544,4366,2650,265,577,-827,5402,4624,-362,1390,-204,6006,3123,208,1012,-775,5038,5365,-254,439,243,6328,3760,-363,421,-899,4626,2432,988,1186,-418,5226,3762,-346,373,694,9838,8913,-565,-1119,1011,9406,7330,-714,-583,-1582,4908,4224,-765,566,-1495,5883,4037,-471,1272,-1225,5987,5259,-665,179,-875,5690,3561,-142,956,-572,7442,6920,-707,92,150,8363,6879,-971,104,-1616,4681,4980,-852,-839,-979,7164,7504,-640,540,-612,7200,7586,-1070,-1240,-1429,7676,7412,-672,-89,-2128,4189,4922,-1010,-469,-1482,8051,7854,-712,-887,-577,9206,9742,-915,-1152,-1491,6530,6076,-991,360,-2557,4221,4318,-942,107,-1596,6557,7324,-863,-947,-714,6887,8035,-889,-1107,-1130,8541,7819,-1061,-1111,-1610,8088,9804,-1181,-1754,-1935,6979,5919,-623,246,-2837,4183,5121,-1022,1046,-1768,6056,6258,-819,-88,-1695,4305,4685,-485,-279,-1078,6078,7531,-1179,-2012,-2859,1668,-792,-2072,-4148,24936,509399,2306395,4710591,4670904,4736824,4826856,4613642,2492967,-95766,1179226,404787,26451,116823,107654,-12949,5100,7929,-35160,-4313,2528,9106,6077,-113,391,4499,13483,9303,-415,-1140,872,11524,15401,-561,-1386,-564,9742,10762,-1126,-2529,-2672,9799,10577,-1483,-1718,-3146,5842,6256,-1616,-306,-3069,3248,3730,-988,1333,-2386,3828,4424,-420,2163,-1026,6151,7819,-617,-917,-299,8338,10311,-729,-810,-1154,7806,8933,-997,-1241,-1795,8299,8864,-1170,-590,-2547,4802,7303,-1077,358,-2461,4107,5956,-862,742,-2179,4591,6350,-605,559,-1596,4126,6016,-571,8,-1487,4046,4492,-478,1655,-1180,5719,6122,-546,1611,-664,7697,9868,-669,-174,-1544,5355,7973,-568,-1004,-2085,5286,7418,-491,707,-1644,4220,7231,-354,-1252,-1498,8886,11490,-493,-417,-2084,3278,5454,-1069,475,-2656,4333,6187,-690,81,-1715,4445,7597,-498,-256,-1577,6080,8417,-258,-794,-1731,5033,7865,-716,706,-2107,3978,6161,-726,-677,-1965,6454,9537,-422,-544,-1618,5863,8494,-688,-619,-2230,4633,6177,-828,623,-2352,4208,6654,-620,367,-1526,6339,10232,3,-1246,-1496,6632,11087,-664,-843,-2371,4931,7274,-1024,112,-2463,4422,8309,-447,-1585,-2135,6128,9350,-440,1119,-2321,3505,6606,-592,-1359,-2232,8626,12227,-134,-512,-2024,2114,4932,-931,-681,-2771,4587,7088,-370,1166,-1551,5736,8045,-678,-1116,-1922,4872,7479,-592,189,-2202,4457,6715,-456,-97,-1622,5926,8867,-371,-964,-2938,3875,7192,-2631,1323,-4108,9835,127004,908618,3372819,4700264,4864138,4981568,4516776,4078129,1722953,57974,1351189,546736,90234,-67762,-92888,-2132,141865,887,9667,13046,3901,37,3250,2110,16089,15091,805,-500,439,11000,16437,140,-1575,-1755,8609,13148,-44,-1827,-3010,8146,13158,-814,-1680,-3565,4414,8783,-761,-1550,-3898,4385,7645,-742,1516,-2545,1949,3397,-704,3629,-2172,3450,7480,-330,-187,-1157,6176,9211,-66,-147,-1632,6737,12595,2554,-1871,135,14430,21570,-341,-1919,-3219,4175,7836,-1838,1406,-4254,4503,6446,-748,-624,-3014,4670,9744,50,-241,-2188,3887,9274,-126,474,-2026,2587,5436,-423,1729,-2180,3131,8609,338,155,-1438,5133,9595,55,1362,-1865,3287,6935,-254,-92,-1974,4710,10010,103,542,-1677,4206,8430,603,-661,-2047,3154,7100,-173,455,-2007,2826,6928,200,-319,-1534,3459,7696,-55,246,-1808,3996,9082,1016,-520,-1832,4955,10780,687,-573,-2245,2849,8229,-134,376,-2290,2669,7015,547,-634,-2242,5574,10270,824,-400,-1819,3675,8319,203,514,-1939,1980,8061,1528,-1226,-2264,3822,10169,536,230,-2046,385,8651,370,-90,-1769,2957,8427,738,-384,-2320,2441,8074,842,-1624,-1946,2092,6587,-346,4848,-1732,3100,4558,1980,-997,-1752,8253,17358,2759,-1156,-2258,3497,8762,-523,-364,-3076,2820,8375,27,-368,-1937,3323,6942,-239,646,-1908,1691,5670,363,323,-1653,3064,7256,162,918,-1385,3592,9842,1475,-1683,-3073,4797,9387,-2436,811,-4529,19589,384456,1882574,4793745,4793572,4992994,5084841,4677892,3451708,-67332,1277215,611789,168858,105130,27003,-2170,57333,40528,-39855,3314,8770,8474,1403,242,1610,12136,15722,2014,4,-1168,3999,11752,2991,-1460,-2312,5601,16599,3027,-1314,-2556,3454,10640,366,-1602,-3604,3352,11450,647,-1110,-2713,2153,6387,-216,2196,-1660,956,4915,-255,2085,-1484,2081,8628,1144,442,-1336,4388,7684,1861,-1227,-1530,3836,14692,2086,-948,-1594,4243,11127,5858,-1964,-3513,5392,15846,2616,-1248,-2886,-618,5137,-890,146,785,-1248,2529,-350,4468,-1206,2080,6223,2040,-86,-844,5218,11939,1754,-97,-1090,1610,7383,558,1679,-1540,2550,9394,1833,50,-997,1786,8740,1305,641,-1272,1654,7900,1605,182,-1113,1199,6853,1058,221,-1412,2032,9980,2953,-516,-1240,2576,9383,1588,475,-1371,556,8515,2316,-643,-1656,1823,10479,2463,-806,-2004,2004,8980,1318,-175,-1312,1115,8409,1872,-964,-2100,2608,9869,1836,291,-1554,1520,8781,2786,-1158,-2212,3145,11298,1711,-104,-1587,1183,8752,2980,-1595,-2570,3449,10786,1297,525,-1704,1112,7684,1409,-840,-2285,4458,13316,2740,-583,-1410,1337,9478,2221,-685,-1232,931,9980,3236,-515,-791,-578,4260,560,1706,-1073,-134,5447,1127,1022,-979,3843,11670,2977,-456,-1212,3527,11175,2542,85,-1304,265,9756,1647,-2157,-1937,-539,25600,63562,328785,1451832,4246490,5019802,5024251,4486381,2903781,604129,45435,490416,140464,-83714,-149782,-44903,128076,85177,-578,17271,8631,-75,1366,-150,7167,12692,3554,-471,-854,2748,10808,4448,-761,-1334,2548,13276,6478,-1426,-2329,3251,15174,8070,-1840,-3412,2043,13371,4278,-1266,-2468,-1086,8948,1564,-983,-2161,-485,10468,3307,-577,-1243,14,7634,1653,1168,406,-894,4887,1268,1062,-233,699,7439,2246,350,-315,1452,8592,2642,346,-109,465,5390,1310,1833,-676,487,5028,808,2784,-59,878,8337,2220,-148,-310,1985,10438,3415,-193,-505,1091,7655,2648,-18,-224,462,7403,2640,136,-137,-96,6657,2745,-85,696,-7,6153,2385,398,1383,574,7233,4545,-426,-561,963,7379,4047,411,685,-67,7467,4487,-715,-139,0,6794,3899,-311,-315,-798,5293,3249,-87,-59,-274,5325,2689,-88,-67,-69,7554,3410,-297,-77,708,7738,4422,-629,-1146,847,9014,5851,-521,-581,-26,6838,3298,-430,-724,43,12388,7301,-1173,-1190,142,9495,8117,-1591,-2719,-255,8681,5148,367,-530,-2003,4393,1895,179,1633,-1459,6393,2692,629,586,-295,8008,4517,-220,134,211,7321,4495,-727,-1032,-1901,2824,-1662,1229,-3786,20469,210598,1065585,2882536,5058929,5170994,5310421,4887900,2676148,39705,893740,328716,25218,145506,100103,8974,38567,23594,-33193,-2587,2923,9224,3748,55,-127,6520,15363,6720,-672,-957,2848,8388,11254,-1120,-1948,3117,14183,7082,-1649,-1670,-1604,12271,9421,-2486,-2656,-1091,9170,7929,-1477,-1990,-1334,8438,4453,1304,2129,-1965,11370,8805,-2521,-2559,162,12827,7879,801,2831,-2665,2310,1895,-405,34,-1300,8826,5838,-649,-65,-290,7582,5352,-194,1496,-524,5061,4169,-83,1735,-1156,6244,5001,-200,348,-524,6880,5565,-354,264,-495,7579,5486,-812,-741,-272,7556,5411,-94,1010,-829,6630,4898,-943,-409,-673,8854,7054,-786,518,-1206,5241,3908,-211,1936,-1312,6398,5255,-523,1054,-474,8463,7785,-856,-864,-347,9578,8373,-785,-66,-1389,5630,4673,-1040,-166,-1717,5397,4292,-681,-270,-740,6742,3959,-619,83,-135,9962,9348,-847,-1849,629,9359,7673,-509,1187,-2324,4529,4377,-1366,-1344,-1205,11321,13474,-804,-2055,-242,8278,8184,-908,-989,-2959,5598,2789,-636,1098,-2423,5667,5625,-1243,-270,-1033,5176,4410,-664,2365,-1407,4646,5253,-601,572,-457,5890,6966,-848,-1420,-236,9173,8982,-2980,-575,-3515,6817,20625,72094,688682,3123819,5028774,5121036,4804324,4352390,4053892,1290339,157596,1144878,294954,-150813,-209255,-90344,144778,77391,5021,31464,6913,1795,3947,8,10849,9208,-297,-127,947,10985,9372,-421,-1208,602,13465,16057,-278,-2206,592,12878,13169,-1715,-1969,-3992,5931,7462,-2069,-2605,-3566,9661,11434,-1367,-985,-2701,5131,3840,-251,3012,-3332,4781,5032,-763,1641,-943,8447,10003,-700,-457,-1017,8670,12187,-842,-1337,-1014,11426,15073,-258,-2178,-2330,7555,9298,-916,2481,-3811,2620,3689,-1078,745,-2756,5965,6926,-639,896,-1277,4562,7068,-606,-10,-1316,5779,6152,-626,4306,-1296,6330,9064,-389,-1221,-667,10791,14229,-947,-631,-2225,5026,5271,-1101,1233,-2633,3906,7694,-700,-858,-1393,7651,10641,-693,364,-2074,3739,6249,-920,12,-2371,4507,6117,-489,-166,-1720,5142,8314,-328,88,-1467,4622,6593,-615,-915,-1953,5036,7515,-457,337,-1649,5819,8026,-826,-423,-1779,7082,9064,-632,-188,-2292,3903,5866,-797,-6,-2191,4916,8311,-524,-654,-1221,8235,10866,-461,-1002,-1924,7207,10858,-825,-496,-2737,4686,6967,-1020,-201,-2932,4002,6673,-718,-603,-1993,6048,9067,-672,-93,-1772,4630,6999,-765,-98,-2326,6138,8599,-560,77,-1924,5649,9533,-391,-643,-2173,6380,11186,105,-1763,-1944,6744,9938,-720,979,-2780,5253,8832,-1281,-1415,-2677,7563,11145,-585,-116,-2902,6117,5971,-812,5269,-2348,9474,13428,595,-1608,-1386,9124,17134,-1141,-431,-2523,165,6444,-2627,-2824,-5146,862,5513,-312,13172,498621,2829397,4827018,4592002,4419018,4393417,4457644,3788297,-141381,1725740,527186,-12900,-12855,189121,182196,-14188,-5785,-1476,-9776,2483,1701,15467,15423,1277,-210,2743,17240,17047,373,-1450,-1930,8872,16692,732,-2042,-2893,6647,12066,-483,-2029,-4441,5446,11914,-693,-1938,-3582,3854,6099,-981,2881,-3391,2914,4490,-727,3858,-2000,6085,9835,-437,877,-1549,4803,8516,-542,1175,-2058,6194,11549,868,-1154,-948,12582,20771,2531,-2429,-1219,11952,18943,-710,-2029,-4786,5221,10676,-2089,-361,-4070,2937,5652,-1193,2409,-3083,2478,7363,-86,1203,-1839,5652,10289,540,-255,-1791,4210,8117,-409,926,-2033,4074,9565,-119,-422,-1698,3625,7849,-278,2644,-2360,5021,8424,1235,-720,-1781,5492,10666,113,391,-2091,2565,7249,-300,-1732,-557,717,5807,-188,1404,-2062,4317,6358,1350,23,-1403,7659,10622,549,-359,-2097,3724,8412,-140,357,-2158,2957,9275,1223,-1201,-2092,6511,13287,706,-190,-2251,2728,7824,-30,-1532,-3144,4140,10676,415,-104,-2177,2450,6051,-303,293,-2489,4101,10781,1990,-818,-1931,4729,10160,115,476,-2466,2244,8589,1096,-1201,-2338,4420,11847,735,-600,-2260,2084,7644,213,892,-2073,2427,8613,1027,-1170,-2279,4843,12698,1004,-346,-1925,1313,5378,-656,-293,-2914,5195,12176,2091,-166,-1686,5851,11207,907,-566,-2607,1340,8715,994,-555,-2260,1953,7793,622,-288,-1825,2767,9447,709,-1045,-3571,765,1197,-2399,-708,-4661,49790,771127,2691300,4757288,4808386,4906237,4975101,4593886,1060678,274081,660415,155806,83502,174633,60702,-8660,26042,-12160,-17858,-969,18272,15149,3492,-92,1328,13061,17454,5886,-1932,-2134,6466,15834,3066,-1748,-2703,5585,14944,1420,-1450,-3334,3054,11752,973,-2777,-2967,5976,16062,1779,-654,-2705,1974,8856,-2770,-2382,-2129,213,5593,-267,5534,-2143,1493,4181,855,346,-1320,5031,12752,1618,-577,-1506,4134,11416,1711,-738,-2045,2780,9476,819,-237,-1941,-264,8885,1685,-430,-1553,878,4080,-134,2282,-1897,1940,9197,2342,-329,-804,3552,10366,955,644,-1293,1393,8261,2038,69,-1299,2537,9178,1504,490,-1290,946,6059,735,697,-1593,2565,10276,2369,-450,-1317,3793,9866,1577,337,-1233,605,5593,861,1161,-1195,848,8158,2365,32,-1327,3272,11274,2781,-665,-1672,2488,11424,2334,-420,-1980,2162,9943,1917,-585,-2038,1832,9572,1594,1069,-2390,7744,10373,3141,-1186,-2066,2589,12724,1115,-689,-1893,698,8013,1017,751,-944,1382,9294,2952,-939,-1769,2742,11736,3207,-439,-1104,-261,5487,849,169,-1462,1326,9267,2784,-597,-1320,2328,8178,1982,-1144,-2391,3461,11314,2270,142,-853,1115,6561,545,415,-878,699,8731,3267,-419,-793,1068,8541,2427,-123,-756,651,8276,3140,-1188,-2314,-2053,638,-2224,-1999,-1958,119628,872894,2498057,4819359,4826049,4926233,4952900,2409768,32530,801110,163219,-106580,-68048,167589,118289,-25314,-6139,-17341,-2177,-293,2181,15149,7151,-150,-143,7083,15681,4856,-1182,-2003,2878,14599,8074,-1208,-2204,3773,15022,8984,-2199,-3398,1044,13284,5335,-832,-2453,-2146,8292,2681,319,-2855,98,14749,6725,-1916,-2622,1290,13224,1444,415,-168,-1833,3687,664,1635,296,-563,5999,1837,1930,570,471,7165,2799,484,-135,602,6667,1729,1734,272,557,8710,3595,-238,-502,1694,8795,2850,471,-225,269,6470,2472,184,-309,610,7200,2638,576,-646,803,8836,4501,-592,-700,782,8913,2421,757,326,-847,4469,2178,54,218,569,9100,3535,-29,327,355,6570,3843,38,932,170,6965,3591,362,826,-4,8655,5243,-716,-597,303,9285,6140,-328,622,-423,7277,3704,-705,-1232,151,9602,5477,170,845,62,7533,2850,-170,130,-626,8445,4596,-351,-85,121,8931,5563,-812,-1194,907,10195,7152,-512,3,-820,6975,3651,-454,-293,-907,11947,8653,-1025,-1351,482,9306,8032,-1405,-2632,-379,8542,4419,3345,-59,-1597,7448,5240,-1612,-1675,-731,8750,3401,753,4236,-1408,6680,3962,-879,-1214,1682,12183,9631,-702,106,-2159,5569,1795,-2111,-1951,1115,38984,246408,1150197,3564434,5007341,5180168,5182409,4429930,2882850,58105,1120127,566004,154437,-15915,-91569,-17225,107936,60512,-13145,14665,9304,1169,1532,3,7045,18015,8542,-699,-750,3129,16852,11025,-1008,-2017,579,12485,11212,-1618,-2217,-842,13037,12641,-2083,-3393,-1221,12865,8653,-526,338,-4013,4057,2986,-1743,-699,-2676,6976,5051,-147,1568,-1232,5304,5042,-620,878,-675,7814,5419,-106,1062,-654,9013,7486,-951,-1359,577,11225,9115,-796,1390,-1400,6242,5050,-1275,-1111,-1635,7878,7208,-491,1069,-1501,4428,3577,-626,550,-1145,7568,6391,-704,253,-713,5007,4153,-377,1501,-962,6901,6492,-819,-650,46,9893,9193,-829,15,-936,12171,1731,-869,-181,-1632,6656,6100,-1117,-793,411,6082,6254,311,1264,-1012,7930,7666,-862,-726,-960,11207,8806,-961,-210,-1549,8521,8017,-1182,-1749,-508,12227,11496,-1279,-1157,-1836,6725,6075,-1165,662,-2913,7063,7043,-1190,-769,-1558,10118,10530,-996,-751,-1556,9136,10035,-1134,-1794,-2120,7559,7938,-873,615,-2719,5076,5402,-1095,-188,-2005,7254,6985,-689,-90,-1536,7126,6922,-956,-79,-1207,7850,8029,-954,-16,-1738,4525,6171,-1064,-732,-1396,9771,12571,-573,-880,-643,8360,9631,-1225,-2763,-2323,9242,10838,-823,1620,-2554,4856,5066,-1692,-199,-3038,5661,6459,-810,524,-1701,6514,6736,-774,157,-1115,7609,9318,-1167,-1631,-2060,8391,7661,-2339,788,-3139,19939,225514,1242452,4158779,4785087,4999716,5060057,4467287,3933198,536983,724153,1080658,342789,47359,-81391,-59522,60785,102764,-19849,19693,16403,4644,293,1985,4860,17561,15328,108,-1293,1233,15695,19223,-761,-1438,-2108,10142,13256,-1117,-3125,-3124,11642,14372,-1480,-2071,-3820,6283,9152,-2018,-2007,-4024,8551,9867,-1525,1558,-3248,3115,3534,220,5792,-3002,6687,9794,-623,-194,-872,10368,13099,-669,-683,-1913,8748,12586,378,-2303,-425,13547,17879,-508,-1994,-3036,6620,12011,-2215,-2028,-4721,5671,8587,-1232,1476,-3968,4002,6941,-1223,248,-2685,5462,8015,-819,1193,-2119,5800,7957,-545,469,-1752,5909,9316,-744,289,-1910,6200,9544,-553,-621,-1997,7175,9331,-758,2888,-2273,7854,11606,30,-1954,-1583,10375,15296,-729,605,-3069,2558,4219,-1402,20,-3110,5638,7690,-653,462,-1551,6589,9069,-473,-430,-1830,6082,10960,-95,-723,-2283,5115,6346,-550,94,-2621,4553,7942,-561,-109,-1651,6915,10130,-611,-725,-2077,5062,11831,-47,-1369,-2140,8235,11071,-348,5225,-2991,4605,797,-1302,-215,-2956,8177,12768,-474,-202,-2250,6319,9851,-302,-690,-2205,6710,10868,-276,-584,-2534,4605,7082,-790,-1039,-2794,4893,9250,-594,384,-1967,4323,6984,-641,-396,-2471,7153,10643,-497,972,-2016,7729,13292,347,-1956,-2414,8646,14929,-306,-1086,-3304,2921,6469,-952,2853,-3336,5172,8205,-409,599,-2175,6638,11076,-158,-1151,-2613,6103,10506,-2135,-737,-4366,5283,16655,83477,770866,3457217,4837522,4963904,4675954,4211649,4021005,1587694,105452,1304202,442475,-67879,-151879,-50082,161388,112713,1863,28533,10267,372,4531,693,14073,14038,106,827,-326,9071,14526,1211,-1512,-1803,11156,19609,1189,-1492,-2584,5469,13175,634,-2769,-4379,9318,17691,172,-1852,-3927,3734,6791,-1419,2429,-4212,1689,5567,-814,3254,-2410,4745,8984,-450,708,-1879,5778,12523,367,-1199,-1547,10773,17740,2079,-1859,-1819,11032,19919,729,-2611,-4199,4217,10553,-1474,-967,-4828,2031,7259,-857,-206,-3119,2791,6595,-531,1576,-2460,4331,9083,36,166,-1790,4904,9221,-83,603,-2227,4004,8153,118,793,-1925,3497,8698,229,95,-1923,3458,8687,-87,937,-1903,2761,7017,-160,1235,-1942,4519,10439,615,-401,-1752,5738,13375,804,-505,-2264,3868,9768,86,296,-2509,2238,8516,222,-268,-2130,3285,9567,496,-255,-2125,3605,8242,456,333,-2117,3927,9568,776,-654,-2111,4305,10865,83,987,-2270,3640,9462,1149,-1223,-2655,7369,13961,-256,-110,-2256,2792,8100,428,-1404,-3222,8046,12058,670,69,-2234,3375,8936,448,-1060,-2893,4919,13425,1294,-884,-2553,2923,8949,-278,2117,-2594,3923,13062,2325,-1585,-2546,5210,13218,528,210,-2589,932,6836,-270,97,-2418,3871,8891,437,629,-1828,2886,8825,821,-225,-2258,4776,11120,-49,-681,-3069,121,16795,26465,205459,1277856,4238699,5093933,4990633,4537417,4165051,1327778,-57262,686238,260368,-114247,-209771,-112224,103552,121846,121,22747,10163,-258,6689,-768,10208,17320,2726,-372,-672,11951,21728,4162,-1681,-1750,11269,23812,3545,-2868,-3992,6375,16334,-119,-2364,-5534,2378,12049,41,-2697,-4848,5839,17181,1550,-1877,-3700,3201,11815,86,923,-2574,312,7447,433,802,-1994,1694,9376,1706,-78,-1692,2022,8074,582,2065,-1340,1681,6056,758,1846,-808,3955,10267,1413,680,-1442,3297,10694,1743,540,-1262,1987,7957,500,1586,-1618,2705,10059,2769,-1503,-1774,4047,11037,326,3520,-2029,1752,5706,1378,-181,-1655,3934,12269,1522,744,-1399,1020,8724,2160,-255,-1513,1272,7793,779,910,-1431,1877,8806,1463,1129,-1290,3158,10757,2753,-755,-1968,3216,12026,1895,-253,-1785,1554,8704,1268,-349,-1998,2558,9587,2143,-413,-1501,2289,9089,1009,627,-1401,1292,9763,2533,-630,-2020,4472,14606,4079,-1121,-2336,2606,10268,820,598,-1948,705,8433,1278,-474,-1898,4048,14240,5663,-1736,-2625,6372,16357,3521,-99,-2521,1278,10207,1715,-1325,-2514,565,9788,1571,-911,-2542,853,8980,1525,1008,-1167,2056,9292,1719,169,-892,780,8049,1698,464,-63,1595,9040,2638,-1693,-3243,-1038,2320,1809,-3118,46240,721883,2866491,4842153,4523029,4527402,4529654,4518874,747371,524587,468282,20024,-23647,92422,307314,47920,-28428,15933,-2847,4293,-99,6434,17695,2387,929,-390,8591,19585,4915,-803,-1201,4908,17140,4394,-1567,-2683,3824,15284,7476,-1645,-3398,3271,15728,5305,-2286,-3830,1305,14881,2960,-1461,-3029,-351,7740,67,972,-1811,21,7766,1819,375,-1148,1765,7275,987,2016,-918,694,9491,3737,-702,-1046,3012,13222,2716,207,-825,215,7540,2236,811,-824,694,7560,2075,63,-401,263,7020,1840,1045,-468,1084,7032,2124,1806,-818,2554,12039,4208,846,-1447,2589,12968,4055,-540,-1154,611,11629,2887,-322,-990,377,8637,3033,147,43,-328,7441,2895,30,-373,309,8338,3568,3644,-1978,4711,15608,8475,-1177,-1929,2944,18411,1810,-1363,-1794,-1189,9431,2920,-111,285,-75,6658,3216,-412,-505,-9,12308,6241,-614,-1286,1517,12091,5551,-678,-1350,-96,9264,2700,330,-606,-493,9487,4718,-1208,-2126,2496,13777,4600,-317,8,-428,9212,4357,-1680,-2191,1282,13096,9041,-599,-1031,-782,6901,3815,-736,-1336,-1284,9773,4259,-169,-1003,846,11648,6625,-1271,-1142,94,9710,3817,-414,-62,-1570,6461,1837,1973,785,-542,7729,3770,231,-85,797,11104,5558,-600,-961,810,12034,6047,-3119,-3141,-3197,2236,5313,-1827,109995,1288258,4866682,4890694,4628254,4493092,4378631,4408531,516578,1324888,948317,-17613,-102183,-25790,219137,113872,-28206,29766,4097,3857,433,3075,16618,6630,22,177,3032,14867,7046,-1041,-1704,2662,14362,10293,-908,-1188,-455,10558,8145,-2083,-2946,276,15524,10387,-794,144,-2327,7396,4975,-2260,-2343,-2454,9091,8587,1300,1482,-1641,6998,2644,770,18,-1911,9920,7009,-904,-297,109,10978,7048,-948,-1326,960,12475,9936,-1023,-1789,741,13835,10281,-1426,-651,-2411,7720,3665,399,1461,-3010,7405,5329,-881,-273,-884,7821,5303,-157,1342,-607,8132,6016,-718,-486,54,9706,6536,-347,1503,-820,8976,6092,-909,328,-722,8646,7285,-912,-81,-1102,8320,7332,-917,25,-1066,7669,6480,-814,318,-1461,6315,5046,-694,-1011,-13,11401,9149,-918,-419,-343,7713,4881,-980,37,-1973,7713,5852,-800,400,-1029,7955,6091,-963,-896,-446,10881,9442,-954,-1162,-519,8543,6559,-611,262,-2159,6720,5746,-1180,-673,-1477,7547,6575,-686,-93,-1242,8147,7658,-1089,-601,-991,8884,8591,-1084,-1253,-1094,8821,7692,-896,-496,-2101,6654,7891,-1079,-896,-2062,10757,11168,827,-2056,-1477,8963,6981,1,514,-2825,2410,700,-974,136,-1722,8103,5339,-594,975,-982,7177,5570,-616,289,-821,8905,8014,-939,-4,-1100,6802,7163,-920,-646,-1912,7206,7318,-2914,730,-3626,13774,28038,172598,1176297,4575446,4946129,5048776,4608697,4103959,3873252,256790,1134819,853717,121160,-138862,-149427,-18841,206688,41311,30748,29025,5233,1364,2670,2810,18422,12302,-530,-909,1377,14537,13182,-951,-975,-1413,9337,10689,-1331,-2163,-1916,10328,11989,-1320,-1250,-2600,10664,10724,-1601,-2431,-2502,13094,12354,-1431,-559,-3331,6423,4468,-735,4006,-3352,4169,4141,-312,2091,-941,11393,12966,-451,-1222,1015,16254,17283,-796,-2932,-1114,11910,13084,-1472,-88,-3783,18960,4734,-1992,-1402,-3859,6995,7688,-262,6346,-2125,4757,5767,-875,1098,-1819,8017,10091,-723,378,-1505,7402,9034,-877,817,-1679,7146,7935,-812,959,-1932,6304,7584,-898,-801,-1259,10319,11163,-875,511,-1646,6062,5844,-994,1802,-2577,5729,8398,-713,-913,-849,10245,12100,-592,-439,-1854,6766,7661,-1111,1776,-2692,6197,7854,-913,-200,-2066,8444,11226,-475,-1047,-1805,7514,9842,-902,-308,-2377,6518,9027,-1011,-590,-2463,8146,10967,-954,-980,-2437,7398,9428,-944,593,-2828,6794,8656,-980,-1451,-2073,8538,11154,-884,-501,-2134,9237,12881,-965,-1975,-2227,9005,10544,-1077,-450,-3660,5836,8667,-1418,-195,-2709,9484,9451,-1177,605,-2769,4221,6587,-1009,1,-2483,6487,8766,-587,541,-1516,9189,11956,-476,-1217,-2168,4627,11359,-3001,2429,-4773,6095,34882,92967,568309,2117156,5024094,5168448,4866049,4335481,2135114,211604,480389,430142,27153,-178352,-208208,-92321,90564,46960,4470,25172,6446,-284,5752,417,15568,16416,1898,-1374,264,15116,21698,310,-2293,-1401,12899,16960,-1530,-1476,-4149,5485,9876,-1658,-2859,-5018,9300,15763,-407,-1549,-3356,7373,12025,-1367,-2535,-4254,7955,13470,-1193,-650,-3673,3030,5439,-1197,3588,-3611,4579,5958,-682,3098,-1914,7245,9706,-615,2436,-1626,6674,10087,-514,2917,-1884,5438,10853,-463,1356,-1857,4761,8915,-456,2014,-2241,7512,11342,266,324,-1702,8535,13301,-251,-778,-2485,7836,12828,-565,684,-2829,6328,10447,-543,-539,-3080,5902,9244,-848,1724,-2805,5416,10977,354,-1331,-2105,8323,12780,-565,1024,-2816,3569,8641,-858,221,-2797,4519,10135,-91,-371,-2564,6474,10254,-436,1290,-2260,4320,9265,-142,-2449,-2540,6788,10502,-286,5653,-2420,5298,5298,460,-1041,-2272,10671,16493,-471,502,-2869,4407,11159,569,-2608,-2613,10393,15566,-475,640,-3110,4779,10792,-829,-1476,-3616,7444,12609,-513,604,-2951,737,4204,-646,3561,-2643,4735,10142,173,455,-1267,8788,14423,886,-794,-2539,5870,11049,-1783,-416,-4152,-1216,9894,10317,28824,431047,2104023,5345269,5157226,4847556,4546453,3933516,910294,161414,699969,-25210,-205621,-197282,28548,228863,-2187,8334,18569,204,7272,-2044,9440,19620,1305,443,-128,13026,21312,2580,-1774,-1915,13636,26464,3440,-2914,-3032,13091,23520,-254,-3042,-6141,5830,14138,-1859,-1994,-5991,5449,13488,-91,-2298,-4999,7556,16398,583,-482,-3221,1970,7583,-1011,9204,-4580,5181,19988,4412,-1992,-2300,8563,21907,-1327,1227,-3600,753,7458,-861,1567,-3451,4858,11928,681,821,-2264,3841,8106,230,1289,-2367,3384,10240,524,1196,-1810,6151,14681,1857,-807,-2364,4415,12133,84,216,-3018,3178,10047,552,-198,-2466,5398,12611,699,938,-2438,4027,11302,717,-304,-2975,6335,16078,1711,-559,-2736,4756,11421,323,850,-2554,2171,10260,802,307,-2241,2889,11183,1755,-445,-2513,3559,11400,1349,-210,-2474,4331,12277,1781,-1173,-2757,5994,15713,2105,-1187,-2990,4036,12795,576,-227,-3342,3512,12706,2014,-1788,-3449,5478,13979,461,990,-2548,1375,9463,2033,-2471,-3605,9894,20971,2273,-197,-2806,4405,13209,990,-1480,-3259,2973,12410,978,-319,-2450,1025,8716,291,3277,-2097,2039,9131,1413,8099,-1399,16250,32547,11051,-1498,-1203,13834,36514,-2869,-833,-4919,-5583,1070,853,-4092,169783,1553738,5105540,4963843,4660154,4460380,4358850,3722562,36953,1468361,544523,-130561,-215083,-42882,219615,44337,-17178,23630,-4619,6909,-1666,5065,20055,4669,91,-266,9733,19099,3453,-1329,-2581,5598,19547,4726,-1984,-3201,5483,14877,2014,-1302,-4162,3354,12100,1464,-1724,-3681,3098,14351,1747,-730,-2724,1454,9914,724,787,-1524,217,8251,832,1343,-1958,2739,10972,2200,-277,-1614,3680,14324,2811,-1065,-2427,6047,17927,4762,-1263,-2382,2508,11929,1215,-422,-3047,1681,10529,1899,-368,-1906,1995,9883,1094,1597,-1576,1709,9290,2689,157,-1345,2227,11049,2150,601,-1629,1657,10482,2112,1304,-1893,3057,13190,3295,-348,-1799,2904,12812,2848,-358,-1809,1467,11325,2297,-99,-1344,616,9104,2475,345,-1461,1711,9776,2259,563,-1225,2260,12630,3287,-881,-1914,3431,12732,2995,-282,-1857,1040,8884,2413,-936,-1914,2662,12308,2028,1092,-1412,1573,10158,2888,-619,-1266,1942,12156,3460,-421,-1655,1302,9965,3472,-271,-1174,603,10589,3676,-833,-2077,2382,12516,3954,-493,-1512,1375,11617,3587,-943,-2408,3784,18315,6240,-1296,-2060,1177,13884,4988,-2475,-3926,770,9429,2016,3889,-1697,-5,8009,1612,95,-565,1012,14246,4706,-501,-1517,1017,10391,3221,200,-255,-585,8697,2592,-172,-2095,-339,8977,244,310,-4439,11974,172445,1042766,3240606,4850613,4970073,5145921,4824210,4096792,625312,501156,807417,255145,122238,24871,-48249,-12576,67325,-24119,-7313,9846,11936,3541,656,-91,9016,17359,5928,-498,-1323,2999,17431,8170,-1199,-1906,6913,16980,7909,-1803,-3175,2246,16607,9533,-3011,-3742,1185,13141,5615,3466,-3460,-1268,12433,5197,-2221,-1975,-852,11702,867,2127,2380,-1826,6792,3734,-301,-965,2707,15372,8557,-991,-1840,2868,17923,9872,-1763,-3023,3164,17489,9792,-2268,-3359,-194,12972,5652,-100,663,-3065,5525,1888,1284,329,-1848,9999,4759,401,421,134,10376,5480,-236,-161,-125,9892,4345,177,766,-335,9414,3709,245,322,492,10198,4815,266,553,800,11550,6329,-426,26,201,10296,5402,-307,-76,-748,8731,5471,-484,-79,-399,9113,5707,-712,-527,393,10607,6173,-599,-530,-480,8162,4755,-259,707,-764,8165,4481,112,119,-211,10815,7578,-931,-521,-71,11129,6013,-368,-88,-1208,8203,4623,-255,-16,-504,11226,7664,-1039,-1290,-531,14386,14686,-894,-702,-665,11752,8508,-1092,-1498,-3413,10576,7446,-1487,-2701,-754,11164,7553,487,1943,2723,9748,5586,-1416,435,-2005,9500,6368,-1417,381,-1977,5538,3895,444,519,7235,9483,7113,-869,-797,-97,11112,4783,-724,73,544,37094,105400,477825,1852414,4942397,5150587,5168649,4415456,3006598,466551,169853,486713,199575,-29328,-138655,-67952,71294,101948,-5381,20325,15734,3300,441,654,7519,24268,12474,-1008,-1300,1186,17139,14741,-1306,-2847,565,14867,11492,-1071,-864,-2804,8876,8246,-2705,-3843,-885,19546,18145,-1667,-1705,-2536,8770,7251,-1924,-789,-4765,7282,6438,-660,1226,-2708,7397,5783,-604,586,-1792,7726,6153,-31,2982,-1005,9216,8953,-911,-262,-709,9117,6264,105,1790,-1889,7312,6485,-857,-361,-498,8928,5352,-152,4887,-530,9358,6906,-858,-86,-370,2528,7610,-451,1447,-1362,8574,7335,-596,701,-767,9706,8638,-926,561,-1543,8259,7487,-690,1020,-1570,7833,8023,-874,207,-1139,9667,8935,-947,-732,-1319,8185,8293,-955,677,-1645,9315,8296,-1205,-1358,-1018,12810,12126,-1012,581,-2008,6955,5577,-1128,-96,-2546,10300,9915,-1076,-388,-1102,9818,9142,-1315,-544,-1630,10657,10216,-1237,-1095,-1655,11066,12024,-1562,-1655,-1666,12284,11985,-1397,-235,-2899,13405,17441,-1075,-3302,-2255,12952,13509,-1113,603,-4800,2387,3797,-526,3555,-3426,9218,8856,-916,1176,-1461,9683,10800,-1048,-485,-1623,11419,12787,-1244,-2227,-2746,7587,3352,-1576,-4699,9719,220240,1159301,3003502,4894229,4973703,5168844,4966016,2064664,-51057,772910,227319,-9121,127725,144442,-31205,-21153,5206,-31619,-3245,3460,14254,11293,-125,329,4306,12216,10605,-902,236,-941,11048,12721,-99,-1601,8510,21085,26161,73,-3013,-159,15707,18326,-4639,-1959,-6424,9189,12310,-2853,-4340,-5302,13078,14185,-1446,1390,-4375,4477,4981,-1726,1716,-3899,6816,7143,-550,2561,-1872,7437,10306,-794,-98,-1334,9114,12361,-789,-1051,-2137,7705,9548,-878,1504,-2441,5880,7748,-1057,913,-2388,7004,9686,-1008,2598,-2197,7107,11701,-821,-474,-1758,9765,13977,-741,641,-2739,6567,10752,-1119,-433,-2881,8390,12350,-657,92,-2795,7665,11495,-888,-1116,-2684,9496,13176,-974,606,-2985,6363,8201,-1216,2471,-3218,6328,9730,-950,220,-2291,9859,14856,-8,-836,-2151,8239,11703,-799,231,-3217,6269,10743,-930,-1202,-2729,9078,13273,-968,445,-2965,7885,11450,-1008,-877,-3222,9359,14947,-44,-2302,-2846,9706,13742,-1141,-224,-3592,4485,7798,-1534,415,-3624,7139,11504,-594,-404,-2628,7608,11363,-714,-243,-2960,6209,11054,-335,-2096,-1937,14071,19125,-304,-1270,-2486,9529,13265,-1676,-758,-4704,7182,11244,-1429,415,-3852,4176,8129,-914,1658,-3233,7085,12265,-197,-471,-2138,7687,12664,-703,-99,-3035,6515,10434,-1745,-3078,-4976,1984,7649,-803,-507,281353,1918322,4921894,4613077,4441670,4418094,4478406,3513952,-73293,1401170,411997,-91670,-121506,83113,211009,-15472,-12354,10964,-6671,4384,-276,15500,23961,2556,-392,2578,20048,21379,234,-1516,-3097,10006,17844,-7,-2052,-3771,8303,16392,-810,-2873,-4908,9042,14731,-1312,-1580,-4656,6325,10607,-1487,325,-4195,7212,10832,-871,760,-3137,2755,6100,-479,6741,-3042,5659,12360,853,-816,-1088,13185,20468,176,-723,-2940,6833,14562,429,-2403,-3704,11423,18992,-100,-1263,-3940,5403,12137,-1116,-229,-4243,4024,10436,-195,-317,-3352,3255,8697,-503,2870,-2772,3546,8051,-362,1466,-2255,6590,13732,528,-364,-2094,7865,13464,137,-665,-2844,4213,9640,-660,2536,-3024,7111,13403,618,-1044,-2448,10804,19875,390,-939,-3346,4282,10634,-679,389,-3522,2710,8962,-19,-318,-2988,5656,11834,202,888,-2492,7214,13636,603,-980,-2828,6552,13612,-64,-231,-3481,6668,16707,2408,-1830,-3173,7166,14485,-233,-207,-3953,2409,9856,-46,-324,-3056,3191,8153,-221,863,-2971,4535,10549,393,732,-2043,6169,14939,1434,-1643,-2724,7556,16183,243,753,-3380,4295,12758,594,-1584,-3770,8407,15054,-292,1704,-3071,2607,11248,322,-1813,-3598,9232,17715,381,1536,-2960,3703,10787,-175,-1020,-3878,7860,18519,2320,-1754,-3247,6894,14349,11,-760,-4161,7166,15858,957,-1072,-3152,4015,11835,-94,-349,-3547,1686,9058,-32,2881,-2838,3468,9172,389,1139,-2491,7314,17115,1575,-928,-2390,6316,15360,-917,-2223,-4260,-2160,4709,-455,4867,448442,2574305,4941850,4802501,4529462,4454423,4497599,2743345,-89201,1456945,283571,-130525,-121945,83236,258557,10375,-4165,33041,9126,10297,-912,13317,24262,3717,-144,-612,4096,21898,2852,-1103,-2941,6950,20685,4470,-2184,-3299,7645,19653,856,-1406,-4791,4212,14118,1239,-2731,-5125,7086,16317,-234,1480,-2907,549,8551,-354,648,-3249,3779,12024,881,1440,-2551,3928,12255,1271,-243,-2643,6223,16133,1912,-1628,-2975,9406,23515,3460,-2447,-3614,9113,18913,658,-1400,-5087,2833,11070,-339,39,-3671,2000,9258,554,-209,-2930,2102,9288,485,2102,-1922,2197,10072,735,1305,-1784,3750,11538,1208,1145,-2113,18965,13368,1689,748,-1924,3868,14938,2746,-1652,-2795,4857,14479,1277,291,-2386,1174,9352,1580,1788,-2059,1723,8987,822,1021,-2309,4939,15276,2652,-285,-2057,5097,15560,2456,-1213,-2963,3585,19010,769,-27,-2686,2705,13978,3803,-1389,-3558,4613,15980,3484,-1060,-3138,1458,11257,1526,614,-2357,1045,11708,3326,-1169,-2553,3173,15448,3145,-966,-2782,2955,17091,5096,-1747,-3291,2860,12833,1653,-1317,-3561,779,10358,482,1985,-1961,1752,10244,1393,1071,-1639,2206,12445,2478,717,-1541,1881,12374,3813,-551,-1586,1966,13312,3545,-593,-2537,1138,10582,-143,1741,-3087,2657,40633,114064,557734,2106802,5030315,5234622,5102987,4419424,2200390,203684,394442,415730,115973,-73894,-170398,-103400,60158,72570,-754,16466,9756,189,3399,-476,8947,20153,4369,-41,-1341,4607,18473,6417,-1417,-2644,6274,24911,7396,-2089,-3345,3917,19582,6763,-2950,-5536,3684,17635,6727,-1212,-3347,-1864,8827,1734,-2921,-3885,-688,13654,3130,397,-1955,1277,11271,3374,-320,-1202,-399,23079,935,1723,2448,1310,16119,5820,-595,-2178,2569,10846,3828,4486,-1122,192,7456,1636,2848,-242,366,10486,2070,2492,-577,901,11032,2736,295,-552,1505,12384,4008,239,-741,1299,10800,4681,-551,-1405,956,11758,4134,130,-718,-66,8540,2691,630,-821,456,9290,3107,307,-418,-379,4868,1007,418,-1540,943,5668,2228,-126,-837,1917,5023,745,-461,-1259,1589,5240,710,133,-591,788,3071,307,300,-971,1999,5651,2957,-770,-229,6285,7624,2472,-685,-1310,4419,6948,253,-1318,-1538,415,3993,-286,-957,-1691,-451,1183,-156,2188,-577,-41,445,-156,1114,-504,4342,5377,1011,-43,-189,2569,4245,145,-1991,-2953,-2561,-2249,-2303,-1942,42294,512620,1977022,4750099,5055532,5103074,5064807,2901251,353544,462510,342272,-104772,-140624,-6836,160228,72572,-12753,-24,-5494,3355,-823,3635,7517,3039,-162,521,5987,8885,2053,-993,-915,3368,5775,1606,-1117,-1490,3369,6957,2909,-1684,-1420,4342,7418,2565,-2072,-2341,1440,4449,-327,-1267,-2122,-386,3214,-283,-1249,-1474,1019,4846,1058,-741,-1154,394,1609,10,1097,-371,-301,959,-122,1715,-339,628,1887,31,2664,-122,924,1839,-7,1867,-15,865,2033,293,554,-251,1151,2392,174,1454,-256,1278,2652,848,-342,-360,1815,3238,133,441,-511,1684,3399,1636,-680,-534,2802,4529,426,683,-197,-159,1436,6,460,-424,307,1729,189,981,-540,1226,2233,778,-221,-318,1572,4074,740,1066,-405,-234,2315,1751,142,-632,818,-886,1237,-183,-687,1790,5145,1269,-599,-748,1508,4035,2367,-1375,-1260,350,3543,924,969,-728,-971,440,-56,-365,-519,-9,2599,105,1159,-385,1167,2834,1780,-369,-420,1930,4344,806,-559,-933,-430,892,-637,-1947,-1419,168,15161,71062,519965,2282849,4945757,5060213,5075900,4593376,4169255,1183185,89581,911695,259258,-68686,-158667,-55952,64193,70912,-1455,9533,1451,358,3728,-40,2469,3517,1392,-167,-57,3179,4468,1506,-365,-440,2192,5221,3926,-382,173,5062,8059,5414,-914,-1277,-401,1454,-308,-1165,-1294,-1199,3400,1993,-833,-955,120,1391,374,1329,-45,-796,547,-150,863,-224,718,3095,1966,-392,-113,4523,6675,3323,-550,-611,820,1544,-262,2213,-27,-850,1294,286,-351,-280,939,2626,690,2,288,8148,891,120,814,53,461,1324,673,902,-33,966,2303,1119,-262,-255,1086,2098,1049,240,299,103,1175,676,224,-109,278,1510,1589,-200,-140,216,1469,732,-121,-101,80,1803,1082,-230,-234,1123,1932,978,34,107,104,1669,699,3,-166,526,2387,1424,-341,-170,631,2449,1438,-474,-473,1073,3110,2025,-7,-96,64,1023,32,525,-116,-185,2842,2187,-511,-446,2315,4138,3025,-457,-718,1420,3594,2031,-321,-159,-43,3610,2157,-1210,-1226,240,2868,1720,760,-509,-518,1050,380,211,788,4,2469,1037,-85,-37,-13,1833,1065,139,228,-15,1442,1213,-859,-1640,-751,361,-1862,-1039,-2156,16484,277578,1654458,4877018,4890177,4961695,5046679,4734586,4001953,64930,1389071,766483,102603,24669,61067,22059,69740,40214,-33039,-2113,3633,2803,2010,-135,-307,3628,3880,2579,-517,-617,1890,21143,4870,-441,-487,770,4159,2369,-1102,-3289,326,4920,3129,-945,-1210,505,4267,3690,-1138,-1281,-316,3412,1836,-438,231,-1421,342,-44,1061,242,-745,1049,581,210,3,995,4287,3531,-167,-219,2865,6453,4844,-512,-812,457,3180,2062,-867,-966,-773,1916,344,93,-171,-695,1791,718,-197,455,315,1770,635,230,310,78,1568,1315,-211,320,536,2258,1172,30,468,177,1111,322,846,378,515,2590,2140,-372,-192,1381,3313,2445,-447,-435,85,1600,1146,2,782,-282,1358,822,-180,49,31,2074,1811,-316,-259,952,3078,2454,-267,149,59,1687,721,-167,-62,-194,2149,2357,-429,-508,1232,4092,3797,-487,-96,-292,1471,1153,-534,-227,-713,2070,2126,-385,0,384,7888,1509,-367,114,-414,1801,2494,-705,-740,379,2579,3036,-375,-492,314,1873,2235,-524,-338,-514,1684,1691,-800,-434,36,2393,1617,-379,4,-413,1558,1388,-659,-658,593,2892,2313,-237,-146,-95,1411,1164,-568,13,-368,2294,1982,-424,3,-142,2063,2192,-444,-113,-178,1667,2029,-455,-659,1051,3688,3852,-371,12,-155,2191,2971,-1040,-1083,-481,2104,1443,399,491,-1011,170,98,249,786,20,3051,2334,-366,226,360,2350,2670,-417,-383,325,3541,3340,-801,-1068,-2280,-1526,-2212,-862,-3158,8136,276157,1613504,4708640,4723791,4793932,4846559,4654681,3344581,-18247,1140664,541205,68882,62121,105205,15230,71537,16236,-30965,-4316,1889,2595,2039,-54,-403,2688,5759,3854,-20,-421,1968,4999,5481,33,-706,993,4530,995,-792,-1335,1013,4717,4344,-1181,-1691,2948,1947,1436,-1477,-1777,-766,3495,2574,-869,182,-1025,870,270,78,1506,-1097,2187,1935,-389,-232,418,3007,2318,-240,876,-15,3230,3796,-469,-674,1130,4557,4681,-465,-288,-892,1120,1224,-544,504,-967,1361,1404,-432,373,-334,1507,1437,-194,580,-150,1740,2504,-309,567,-74,1683,1664,-211,709,-427,1924,1821,-254,556,-246,771,210,680,761,109,2484,2901,-182,-143,1368,3857,2573,-434,-48,-411,1395,1038,-343,380,-313,2352,2268,-431,-278,532,3450,3246,-404,-62,-456,1684,2506,-543,-775,-310,3000,3802,-341,-532,-578,1958,2165,-622,-487,-858,1532,1071,-303,283,-719,1403,1172,-463,-288,418,3465,3537,-356,113,-92,400,2023,-660,-54,146,1703,2203,-419,-161,-327,2396,2859,1180,-577,220,4512,5630,-116,-941,173,3448,3951,-619,-1476,-634,2735,2350,84,1478,-1208,1433,916,-1070,-122,-938,1236,1058,-14,1246,-560,2090,2126,-250,492,248,2987,2865,-383,-37,-771,2056,2560,-2463,-1016,-2619,5377,23159,126463,835042,2992242,4888395,4979466,4723794,4326248,2971260,190045,813520,484453,40326,-117103,-77517,51615,135019,36315,11293,8446,300,1681,1615,1839,6598,4684,103,-320,2846,10148,9653,294,-781,1320,5049,5261,-974,-1584,-1409,3501,4046,-1193,-1591,-911,5044,5778,-969,-1579,-1065,2423,2674,-823,335,-1747,60,488,-612,1173,-1111,2062,1808,-216,859,-279,2039,2622,-255,-278,-152,2657,2266,-254,-85,-394,1203,1222,-171,1200,-326,1153,1166,29,123,-195,1382,946,81,1755,-283,1759,954,-144,906,503,3242,3121,-150,-197,192,3078,2868,-322,-212,-490,1981,2176,-329,-30,-487,1959,2930,-140,6,-601,702,871,-204,445,-691,2244,2514,-222,180,-51,1548,1144,-271,837,-529,1772,2705,-217,-57,77,2538,3186,-322,-485,-251,2571,3204,-300,-67,-671,1034,1543,-542,-646,-547,3757,4450,-153,-54,-445,1047,702,-343,502,-1131,2306,2875,-152,-412,531,5382,5647,-66,-647,-558,2341,3147,-568,-595,-1293,1780,2743,-446,22,-927,940,1469,-472,-176,-888,969,1955,11,-259,-265,1729,2180,-259,108,-488,697,1114,-350,7,-576,1078,1598,-225,400,-178,1919,2338,-278,72,2,3849,5194,540,-644,-513,6018,4522,-143,-881,-1141,671,560,779,-230,-1096,1957,3937,285,-875,808,2522,3687,-250,1077,-1277,516,1223,-717,105,-967,2908,4011,-352,-370,-658,934,1902,-264,497,-791,1979,2566,-871,-2567,-2503,-1357,-964,-2193,-1791,175440,1494844,4785486,4650291,4648047,4654607,4581500,4377454,489615,1306307,919112,159354,-28,90725,146747,42912,14636,-17662,-10552,-1285,752,4399,3765,144,-131,1734,4883,4599,27,-518,359,5743,8481,2038,-558,1568,6963,8859,427,-1141,-1929,726,1093,-1409,-624,-2435,895,3687,-275,-872,-903,2426,2564,-453,819,-1103,84,550,-96,1750,-762,1951,3009,-93,13,-206,3038,4260,119,-510,-399,3481,5444,1152,-630,-229,4338,5579,-369,109,-1310,-79,-30,-708,216,-1264,358,1443,-232,1073,-369,2068,2425,51,289,-33,1922,1541,-239,1118,-596,1179,1294,1031,46,-171,2042,3273,-96,108,-195,1460,3000,269,-383,-649,1778,2425,-222,636,-739,1052,1805,-27,-248,-601,2119,2350,-144,392,-541,1496,2085,25,-103,-504,1455,2020,-237,663,-597,1424,2522,307,-564,-178,3764,4639,27,-380,-679,900,2079,-369,83,-956,2068,2920,181,-111,-759,1760,2879,403,-626,-789,1858,3396,37,-397,-641,1886,2291,-320,78,-891,1213,1848,-264,11,-745,1763,2998,182,-325,-499,1956,3055,-23,-408,-751,784,1563,-302,215,-776,1259,1589,-129,-68,-456,1964,2166,-42,-358,-219,2224,4607,248,-667,-260,2855,3688,-419,209,-890,166,1133,-411,-127,-1002,2057,2387,78,211,-457,3422,3515,700,-449,-388,2228,4589,266,-639,-906,794,1327,78,484,-1047,2001,3361,111,587,-431,3150,4035,159,-589,-936,3305,6069,593,-904,-761,2320,2560,-2428,-1790,-1360,-2586,-1270,1422,202168,1670232,4722004,4807102,4817970,4652527,4536565,4245947,295691,1694936,929665,116612,-64764,-2182,143927,163385,9347,13041,-3218,-734,2307,147,5390,4545,261,471,683,5556,7196,2930,-571,766,6650,9582,1506,-991,-1017,2901,5752,159,-1667,-2051,2594,4315,-498,-1100,-2243,1412,2795,-506,-787,-1486,931,1572,-313,2617,-956,804,1704,-274,800,-586,3280,5265,1019,-547,-466,1679,5926,494,-725,-830,2989,5264,453,-660,-1271,1736,3526,-371,-623,-1462,392,1514,-415,1667,-1085,975,1186,-257,1503,-583,2383,3852,293,300,-393,2184,3651,107,252,-656,1238,1985,-4,656,-641,1692,4263,1134,-710,-380
