0,850,88,567,-204,132,-61,-720,-517,-2000,-1672,2565,-612,1320,122,-520,-66,1040,4788,3990,-234,180,-72,793,270,-260,-441,-1890,949,306,540,915,-450,-380,-63,1395,1533,-306,525,15,340,1596,153,310,-315,414,1925,25,34,-630,-833,530,-420,690,385,-675,30,105,2744,2332,168,60,-203,1755,1530,-126,-56,-1100,-354,104,435,910,-408,-504,-11,775,2006,78,375,0,216,644,-66,1271,408,-33,400,0,837,138,156,1025,-144,374,96,102,496,-30,780,225,216,374,-96,561,32,130,540,18,360,-55,288,462,-30,832,18,-42,320,230,-54,-238,750,1312,24,-63,-416,4232,-30,119,2050,246,456,-117,130,2300,-40,231,1845,48,418,1950,-35,-200,100,2211,2205,176,704,-1450,-280,-48,850,2613,0,-462,224,1131,1280,-72,1734,429,0,399,28,897,-32,456,765,-550,798,-437,468,11408,-1205,-82612,-33300,113200,85082,-49266,-158418,115568,1976200,5078464,5012760,5146072,5075813,4755240,2054018,-70832,613360,263968,137738,186386,133753,44400,63714,26144,-40766,-7232,366,820,-2773,-1960,-2394,2408,2616,-1792,492,680,940,2842,-1311,2212,552,1820,6560,2584,500,-261,1840,7347,460,2600,640,-2280,1925,-126,2880,1860,-960,2080,-40,3180,2849,-462,1404,-100,2256,1456,140,1325,-1036,2211,1248,220,1833,-56,1008,225,1680,4154,352,1408,-39,126,1800,45,2280,992,-517,-256,42,5040,1900,-85,532,-528,3948,80,1596,3040,-418,697,-14,1980,4536,180,1254,114,704,1886,12,2820,864,810,1056,-78,4544,1242,396,1598,-96,1935,192,1378,2698,-486,1815,1122,192,1204,-162,3180,760,792,2035,-363,2016,980,513,420,-780,2948,814,561,2646,-840,1197,154,1599,2077,-770,4539,1218,1704,5355,836,-205,-1178,3570,6586,319,3408,1700,-1064,-55,1786,8364,1480,-407,1392,-580,1708,198,2303,3198,40,629,-29,-203,-8113,-10026,59584,75114,4424,-37859,2227,-12873,-96159,419421,1808192,3678660,4786768,4921670,5099830,3575016,662268,111444,349445,-129880,-162300,-11050,196940,122472,-10992,-4440,-20915,6800,3375,-20,-946,-4410,1356,-1560,2047,1200,-1935,328,-143,3920,4972,-1404,1679,168,2537,3526,-299,3584,-220,2025,6059,56,2478,-1548,1334,5248,-55,2400,166,-320,2646,288,696,-410,-671,1280,-44,5520,693,344,300,160,3660,-40,1386,2001,-341,2666,250,1632,1380,33,3969,-145,1984,2170,-220,3060,46,1848,2016,150,3840,560,792,1500,-76,4144,704,1080,900,-512,2520,750,1140,1036,-1100,2952,180,1472,2870,-390,1350,-364,4750,5986,0,1242,-738,975,2430,728,5700,-73,0,945,396,4500,756,1204,1620,35,3920,595,946,1980,-266,2408,459,1155,1540,-646,2967,396,741,1064,-595,2013,110,2280,2967,-252,1521,-475,2905,3843,10,1500,-774,1449,1404,750,4731,315,-84,400,576,4002,108,1830,1596,-190,2226,352,832,1450,-24,3538,812,-3800,-34397,-33638,56264,54000,-17104,-121684,-60175,-155000,349811,3291937,5039956,4652640,4581734,4607208,4562925,2678400,-86240,1257352,270164,-129240,-32145,180072,239691,55296,-1120,-14016,-10440,5400,405,1394,-327,-2048,637,-720,2520,-360,-1539,1530,-54,2816,2184,-1200,2016,32,4275,5580,-288,1628,-840,3480,5472,-88,825,-3224,1584,1924,910,3828,-380,-484,88,3016,7326,-104,1456,836,225,3388,232,1392,-222,112,4424,-19,2655,3388,-58,816,72,3752,3792,25,2537,-660,122,1054,552,2613,-384,1400,1032,540,3355,-434,1380,1053,200,2576,24,1872,1375,490,3600,0,1175,1150,-23,2964,175,1715,1620,0,2585,75,1127,1596,-154,2401,-54,1728,1485,-15,2205,-364,1408,980,76,3510,189,80,495,637,4864,-180,2280,2600,-105,608,-121,2744,2204,279,1740,-80,705,646,451,3472,406,682,-841,118,3854,-68,2009,1302,-532,1188,580,4189,3936,168,3185,252,2166,2106,220,3266,-1728,4116,3445,120,798,-1521,748,1426,1944,7742,-212,-540,154,1794,4420,-248,2970,1580,160,3834,66,1610,845,328,2420,-1180,3080,71,-846,22050,18408,-90036,-97284,134579,174790,2129,-245199,137970,2945280,5490000,5116254,5177870,5134740,4711477,3399745,-105558,1241760,662500,208260,86260,-4524,4426,142715,54466,-52536,-3975,1080,-1102,178,-184,0,4633,792,-570,636,638,5518,1656,0,3321,27,1824,636,1320,4340,-378,4980,4779,-27,1440,-612,6600,4340,315,2490,-1652,603,870,2040,7260,-744,825,390,1316,4824,493,760,-1518,1020,6105,312,1175,-144,-782,1159,690,6290,4884,-912,1250,62,3220,2684,840,3108,-1804,3458,2600,496,1890,-1452,2044,1722,1189,3913,-1300,1024,297,1386,3796,-697,1508,129,1200,4032,-209,2478,624,765,2548,-72,2832,1197,665,2891,-204,2295,588,984,3304,-361,1785,539,595,2040,-360,2911,1064,817,2550,-132,1575,80,1770,5325,-285,2236,900,408,1980,-36,3186,1350,705,2860,-216,1768,704,594,2160,-396,3196,1265,456,2808,-112,1188,-560,1364,5576,-138,1596,54,490,3024,98,3100,1558,246,1890,-59,7630,5712,-35,400,-1045,3567,1080,3245,6322,-1904,-305,-8,3025,5742,-480,2475,-174,1904,4392,17,2805,66,900,1125,174,4148,-1584,6834,58803,2137,-97650,-54950,129920,134444,-45408,-166428,2073094,5310445,4997510,4969678,5096000,4943572,4470624,360180,1053628,680890,225694,162792,177450,49346,8664,60030,-67976,-23838,-490,1728,-1560,-1936,-388,138,4524,-870,-340,1920,160,3960,485,136,2925,420,5644,3920,208,1170,-280,6936,5625,588,830,-2891,2548,910,1848,4386,-1125,644,-90,4071,7938,-245,1617,215,750,2852,72,2277,-1296,525,4263,-20,1950,-558,536,2277,384,4875,2001,220,2496,405,5427,3312,312,910,-1541,5610,3456,1170,1782,-2160,988,182,3685,5814,-1134,1196,22,2340,4864,-273,3135,798,651,1426,-34,3120,512,945,3078,-182,1023,-341,1904,3180,-296,3015,702,572,1584,253,2856,636,1776,3350,-455,2640,2400,805,1989,-300,2304,300,1750,2640,-50,1855,234,1350,2208,-138,3000,352,51,2597,-132,3240,460,1150,3480,-128,2448,294,1056,2940,-240,2600,522,656,2448,-168,2304,-98,1416,2964,-153,1148,-612,1820,2256,112,4838,1824,391,196,720,5980,1457,3080,2952,-1088,1426,119,1380,3220,-1271,3465,-432,1972,3906,17,368,-1120,3280,4347,708,2842,1638,-18,928,-1760,-29040,-73692,120655,107800,56368,-38376,-120060,-73865,51546,1708800,4345625,4736600,4641688,4671212,4638870,2013157,-39618,787200,216750,-187311,-126319,116123,340632,133411,2511,1968,-5508,8787,4130,1378,7296,-801,-459,188,1998,5454,70,1742,3312,207,2091,-799,3145,4104,-33,3551,897,1242,1558,1241,8585,3952,990,636,-884,5130,1178,3212,3232,-2132,1950,12,3672,4180,-1147,2288,-480,2624,3705,-22,2160,-528,2109,2236,840,4480,684,968,1520,396,3420,301,2968,2520,-492,2728,570,1188,1920,-252,2597,-324,2255,2542,-420,1872,-128,1548,1617,387,3080,41,1148,1664,192,1763,-429,2838,2352,-36,1886,-384,3072,1353,624,4488,336,1764,1794,396,3456,-297,3072,3672,-168,2254,-117,1683,2646,360,3520,486,903,1610,111,3060,196,2200,1980,-333,2408,-105,2294,3660,-56,1595,-1008,3145,4592,3,1674,-1098,812,986,2240,7735,3608,11,-324,1548,5626,1054,4400,2639,-2288,583,108,5332,5432,-434,1760,-522,3744,2067,423,3286,168,560,1152,684,5184,-156,5640,9752,1173,-38480,-63108,84626,161856,-8592,-241440,-193200,75463,1392976,3344724,4899400,4866920,4643976,4360004,1373400,-49987,658840,253764,-72600,-216500,-49726,188529,171348,17094,5005,0,2343,11900,1541,1305,3275,-2178,990,0,2272,4641,-1608,1290,1500,1749,6840,1044,1408,546,1920,7998,2040,2438,1976,-1134,3784,280,3280,1488,-2006,3266,468,2394,1720,-1220,3813,-432,4071,4260,-324,304,-940,5246,6510,2106,4899,1620,540,-24,3243,5590,350,4602,2343,-1161,1410,36,4623,2015,-145,2773,-165,2537,1504,504,3886,-124,1305,1175,250,2773,-288,2184,1972,112,1260,-700,3750,1598,414,2600,-170,1036,308,1568,4725,102,2346,1350,245,1776,-55,3080,1764,-147,2397,-216,2646,1488,215,2200,-700,3528,1551,256,1674,-899,3225,1080,1175,3312,-660,1984,961,1334,3600,-513,3149,1380,960,3348,-62,2300,960,1007,4221,-120,2352,918,102,2700,-180,3339,3024,76,1225,-578,3927,2592,306,1764,-768,1007,500,1904,4620,144,1666,0,1056,3816,220,1736,-420,-246,2499,0,2640,1368,-451,837,294,6888,1479,216,1360,-456,2706,864,1638,4872,232,2628,3400,-5976,-61116,-60320,86658,129746,17368,-151329,-201100,-189489,1325106,4376970,5072826,4881134,4711070,4529505,4416156,825685,658260,933444,100452,-224746,-62930,163875,292068,68355,6900,-4020,-2904,11639,1160,1875,4256,-2268,1275,-390,2310,2373,-1720,2200,1920,1044,3570,-975,2240,189,4085,8360,1920,406,-336,2075,5056,45,5700,1330,-2144,714,16,3735,790,-270,2640,-168,3484,408,114,1215,-510,5508,3212,-132,-936,-640,7239,1512,2754,6018,219,-418,90,6800,12319,1624,1620,-1416,-309,2584,35,4420,2716,-1276,1020,864,8034,408,490,2964,168,1672,-34,2052,2730,-168,4690,1482,-210,950,45,4446,840,1316,2613,-624,2240,400,2475,4134,-168,2444,273,1488,3264,-304,3245,1166,350,2236,-182,4154,1326,760,2596,-484,3200,645,2054,1541,-1118,3120,2288,484,1152,-750,9480,-69,3440,5304,572,726,-90,3200,7560,12,5200,816,-44,2079,45,2624,63,164,3510,-180,16,1953,315,1107,-31,2706,756,675,160,-465,1645,135,1891,3300,-266,2565,600,690,1645,-150,4087,1350,722,2052,-315,2484,210,2010,3283,-270,1938,612,861,1944,-162,4422,539,500,2040,-289,1927,432,1377,2574,-385,3650,1160,527,1081,-348,2907,-234,2625,2920,-957,1798,299,1334,1881,282,6225,-120,2673,3944,143,690,-1155,4653,4316,69,4698,1156,-396,210,1995,9009,520,1219,2262,-425,2088,322,2622,4823,-50,3551,4680,-13875,-84158,-48622,98854,114056,-10450,-135608,-225120,-54390,3353261,5352648,4770780,4570848,4416170,4345528,3909584,70854,1885776,982416,86580,-180540,31695,242611,275088,41934,816,-8148,-3549,10540,-150,4859,3960,-1914,69,-315,3276,2480,-530,3526,450,2145,3381,-330,1728,-300,4717,6150,-75,2730,-539,1760,3072,75,3560,-1500,435,1848,121,3520,-448,280,480,1200,8613,1496,231,-176,504,6160,408,1680,297,-1836,2037,-128,3312,3630,-1496,2184,6,3618,4947,-736,2714,-990,4620,6630,12,2010,-1683,2231,4248,510,4830,-935,-450,1350,693,5044,72,935,1380,363,5250,315,1197,1560,-28,2970,180,1881,2380,-182,3306,270,1288,1404,-150,3192,-204,1690,1334,-279,2346,130,1125,1120,288,5395,46,1736,1581,-135,2025,-40,3168,4067,-44,2856,186,1323,900,68,4092,294,1144,1530,-144,2303,-180,2244,2418,-138,2600,-1080,1056,1034,333,4488,780,667,150,3096,2156,-308,2405,2448,-400,1218,-45,6278,1666,420,3835,180,1000,1218,645,5548,578,960,1652,-105,2300,-493,3397,4408,-34,992,-280,1344,1518,714,5214,928,68,434,480,4608,99,2226,1452,-656,2414,252,1968,936,-192,4929,352,2091,2627,-234,1681,-468,6528,6882,144,612,-1332,1092,1517,1764,7140,0,-450,120,1548,6216,-74,2989,2030,0,3300,70,1677,1332,56,1220,-1682,2257,-1254,-3381,50154,39114,-60396,-43760,129746,134688,-38570,-53130,2512844,5328196,4857564,4936128,5064568,4917216,4325930,71830,1189986,512468,132868,203040,224136,69037,6393,37874,-65772,-20273,-1003,3510,594,-1922,-303,-1914,1296,-1649,-1360,4251,72,3720,3939,-429,372,663,6320,7521,-252,3360,-1677,1300,1643,390,948,-2070,1722,2632,1720,5900,-1219,750,204,1200,5084,-376,1840,472,1150,6450,119,1440,-186,592,4416,176,1200,-258,-434,2484,51,4958,4320,-572,1128,102,5766,3657,459,2479,-1305,2158,2632,714,4371,-954,2025,1073,957,4648,-224,1365,1269,702,5100,-203,1716,896,172,4160,-189,2067,1496,224,2704,-224,2709,1088,294,3074,-242,1664,988,504,3213,-408,2940,1392,429,2912,-76,1836,969,1104,4340,-336,2496,2128,80,2193,-133,2438,992,588,4352,608,680,129,301,3339,-256,2394,1632,-432,1598,-54,2451,1575,688,2964,-552,1917,1269,702,2964,-350,2838,1352,828,4260,-270,2379,1144,518,4158,-234,2988,-660,690,5246,550,555,-1260,756,10873,462,5313,3698,25,60,1540,9324,6943,2562,4620,-473,-49,64,5005,7548,-1431,5002,3000,110,931,-624,4875,2516,756,3526,-700,530,-38,2301,3975,-518,1624,301,798,4134,2,3717,2067,392,5336,658,-23940,-87906,2092,139986,85956,-59752,-188232,-122576,102900,1874201,4675620,4792854,4727580,4647852,4548258,1949480,-55370,816533,270435,-174717,-171600,82764,342342,171925,-452,14239,-3025,7371,6640,38,6776,0,144,2813,-375,3094,-747,76,4004,0,3960,2522,-675,2006,441,7068,5187,306,2255,-1066,4095,3422,1323,2790,-2736,3162,1845,984,3276,-1624,1917,510,2160,5580,-720,1296,324,1316,4473,-238,2160,840,704,2808,-144,2726,693,700,2976,0,1804,572,688,3306,-418,3950,2046,0,1230,-264,1591,855,2546,5767,-627,1220,450,456,777,-360,4489,2190,779,3599,-360,950,21,1296,4020,-210,2009,885,1272,3400,-29,5670,-1140,462,3724,75,1802,-748,1856,10710,1368,6402,3040,-100,850,561,5184,2448,4176,5723,-720,980,50,2754,4941,-840,4118,826,648,1617,-70,3132,854,2205,4899,-294,2268,198,1610,2842,-322,3906,1311,966,3465,-168,2760,980,759,2108,-570,2622,0,1568,3120,-380,1683,-68,1620,3363,0,2968,-260,1273,3876,18,2592,649,1311,3710,115,4690,3040,171,864,-715,4959,3150,460,1610,-1440,1387,18,4940,5394,-990,1200,69,2232,5840,-13,3876,620,990,3060,-84,4092,1920,338,204,-630,1800,-4284,15512,88308,52656,-56732,-8852,141435,87480,-157080,24376,2639874,5401628,4968414,5027936,5107375,4881384,3747480,-24728,1278504,381610,179883,206752,197925,69192,0,47770,-34992,-20460,-158,2912,1044,-2356,0,935,1836,-2508,-114,2368,348,4408,0,792,2142,665,3648,1998,-638,2842,0,7128,3591,700,1472,-1620,2090,2107,2145,2673,-2622,1480,184,3180,5225,-1075,1650,-459,3358,5254,-192,2226,-1265,2200,4400,136,2263,-1420,1680,2730,1127,7656,3344,208,341,1620,6510,2665,2156,3045,-1292,1508,66,4455,3534,-1927,2860,105,1700,2378,-150,2695,-76,2726,3055,-102,3300,738,1025,2156,54,2842,0,1734,3366,-306,1804,-308,1647,2597,0,2958,459,714,1540,322,4392,848,1530,2726,-216,2142,105,2208,3528,-544,2790,235,1104,1938,-105,2736,245,2040,3782,-130,2254,-456,2275,3648,-145,3660,488,1300,2107,384,3705,576,1450,2806,-376,3400,559,1248,1995,-333,2450,92,3008,3400,-611,2028,105,1776,2107,-56,3136,-300,3760,2392,-75,2448,129,1232,1666,348,5600,552,900,1326,-138,2332,-306,4756,4270,-192,1512,-390,3450,3551,189,4100,-61,736,966,1125,5925,2211,588,450,63,3450,46,5625,3318,-858,1428,-90,3528,3150,-78,3975,0,1170,1683,370,2912,-336,1638,106,0,1890,-4785,27824,84812,-17328,-91266,-4422,145145,91224,-243455,379760,3638761,5263380,4926191,4994649,5017551,4782744,3169952,-150995,1215895,503010,199496,180720,116844,-22020,41536,27209,-62675,-13041,1848,1520,-1820,950,-1386,2639,5290,-819,1428,1140,840,3705,-1260,2639,3358,429,3536,360,1248,897,1680,10465,4015,561,208,-456,4524,644,2604,2415,-3520,935,-56,5472,4698,-532,651,-714,6080,3190,112,2520,-1242,1805,1575,884,3230,-1392,416,1470,1196,8360,1725,702,544,1536,4212,672,2392,2200,-1541,1404,208,2624,2025,-912,2944,275,3082,1300,-650,2173,0,2679,1728,-506,1702,-425,3200,1696,0,1692,-405,2852,999,765,3200,-416,1736,1080,615,3286,-243,2700,1650,585,3304,90,2009,477,342,2940,-363,2385,1888,-141,2499,-342,2242,1813,363,1855,-1024,3713,2397,1748,3304,-222,1551,630,1792,4108,94,3358,2576,234,2256,-288,2912,624,-94,4453,-46,1950,1344,752,2288,-300,3102,1769,55,2700,-252,2867,1496,900,2970,-493,3960,2376,279,2379,-646,2196,1530,986,4320,-924,1984,1248,969,3599,102,2668,1620,1617,4928,1376,1632,295,-213,1702,-270,5005,2849,-688,1568,-100,5751,1036,410,3770,-1221,960,1960,860,5265,476,861,1624,1419,-17520,-41960,89440,142805,36669,-44961,-59724,85699,-98112,1833652,4777760,4767490,4652649,4735892,4826979,4107573,225456,1171160,454806,-143220,-34512,179172,323609,113355,-20130,670,-14652,7194,816,486,0,-3905,3360,55,3034,4142,-765,342,0,5041,6832,-1100,3731,1748,525,2394,-350,5325,976,1500,8190,690,1015,-672,2125,6675,272,2550,0,-1065,1624,224,4335,1602,-799,1020,0,5254,1848,378,1071,-828,4089,600,1632,3552,-627,1512,525,2530,4611,-440,2880,720,1292,3528,275,1705,-371,1584,3120,-375,4624,1449,-484,1147,203,4824,1092,1525,2924,-483,3388,925,1450,2814,-252,3538,473,1260,4851,-550,3550,1344,444,1856,-341,4200,1197,1320,4757,-96,1665,384,2201,3500,-285,2880,2010,129,1755,-252,5041,650,750,1440,-720,2881,1053,945,3124,-299,3000,600,1296,4154,-108,1935,792,1058,2040,-600,3510,1798,160,1505,-486,2898,782,1590,3250,-522,2480,525,1674,3402,-230,2597,1000,936,2666,-600,5146,2376,300,1078,-1100,5668,1763,1800,3901,-572,1560,-132,5390,10028,451,1440,-658,1157,3068,162,6664,1472,-583,1472,364,6497,885,1701,2788,-352,3339,1426,780,2044,-90,1575,-533,836,-6930,-20491,42990,60844,-12960,-54425,28483,82270,-104390,588290,2530678,4793638,4710960,4876480,5019581,4810630,1062880,161090,512140,-75004,-26172,183680,325322,131098,-10080,-4706,-23490,3706,504,1558,852,-3599,900,-728,2025,1962,-2100,1672,144,2440,2700,-1568,2125,378,3750,5984,168,1880,-648,5432,7905,168,3150,-476,-427,3619,72,3201,-930,-680,2058,63,3233,847,156,693,450,6885,735,405,1855,-308,3640,357,2520,3078,-435,3240,1015,980,2380,-408,3864,418,1798,4464,174,840,-544,1824,3243,-275,3720,1116,-276,576,656,5852,564,1400,2700,-432,2576,168,2296,3234,-264,3472,1080,1320,2184,-140,2912,168,1342,3038,-312,3025,351,1180,2080,-112,3843,784,598,1705,-378,4720,1000,1204,2016,-480,2622,217,2730,3440,-525,2322,224,1590,1653,-280,4550,172,1344,2160,-245,3551,319,2280,2870,-160,4992,440,2100,3283,-187,3420,574,2400,3744,-242,3660,588,782,2040,-392,4200,672,1166,2501,-324,2576,68,1792,3850,-364,3339,779,1188,1624,-70,4288,165,1716,2709,-209,2024,-116,2345,2747,-132,4752,215,682,1886,104,4757,1066,1804,1872,-255,5270,615,1222,3266,-156,1435,-702,4743,4165,-390,2397,184,342,1190,1161,6975,-147,1742,2193,-84,3363,340,2021,2025,114,4757,344,1155,2596,-180,2491,-243,3458,2911,-456,10890,28732,-25794,-113685,19674,203385,88314,-115938,-353430,133865,3098146,5364645,4984080,4881240,4637562,4352760,3662820,-108035,1461512,802821,225720,-58968,-122721,74900,248292,61659,-20956,7383,-792,2160,6840,-1575,2057,-468,-1891,2185,-96,4480,4920,-1260,918,92,5185,6080,-276,2856,-574,2268,3132,621,4675,-640,1817,2958,70,1701,-2146,2619,2365,330,5846,928,185,21,2590,9797,516,1716,2368,-704,3071,32,1820,606,-840,5044,640,2332,2988,-832,1508,-120,6300,6984,-160,2173,-1368,2574,4292,200,3420,-1080,608,1558,1558,6039,74,570,836,510,4940,-836,3649,-244,-60,5073,594,918,130,1562,9612,108,5160,6408,1269,459,-62,5680,5184,945,5504,1368,-94,221,1271,4960,-480,2415,1792,-589,118,0,2337,1860,440,4692,-140,1953,2242,0,3876,360,2156,1564,180,3906,-342,2178,2856,-312,2254,-207,2232,2108,369,4026,252,1456,828,387,4216,170,2173,1586,-162,3024,-288,3311,2244,-150,2862,-26,1566,1728,624,5236,-297,1890,1674,33,3480,96,2340,2176,342,4158,341,1287,780,-144,4440,-288,3154,1848,-374,1872,-156,2832,1850,585,8715,-168,2176,1536,408,3186,-400,5265,6930,114,2496,-288,1836,1728,480,3564,528,1577,195,441,3402,128,1410,704,-304,7968,-150,4410,3024,-48,1833,-64,2242,1824,1770,7650,-144,636,1248,64,649,-760,826,-42500,4284,114745,68544,-33952,-23617,86440,28714,-26500,3138744,5286930,4703832,4623838,4796398,4823352,4362477,33443,1582560,549450,8784,89339,277016,261144,72318,-1262,-38880,-24300,-352,-246,5332,117,-2346,176,108,5184,1584,-240,2709,-12,4278,1936,124,3888,18,2240,1827,372,2604,-946,6076,5427,-3,840,-1682,3069,1554,1763,6174,-737,174,105,3886,8811,-111,2009,945,715,5742,196,1407,-1602,240,4753,-30,3770,2970,-1064,1197,720,7600,6111,66,2668,-1050,3496,3420,880,3800,-1827,2673,1748,1085,3956,-1320,1672,920,1015,4212,-760,2170,473,1100,5396,-299,2100,468,920,4830,-110,2950,1207,650,4380,-54,2208,690,500,3422,-391,3750,2263,144,720,-340,4000,1450,1127,5175,1023,1368,-255,1972,4800,-25,2401,1656,1386,3078,765,5104,1320,33,2303,-168,-504,594,3330,8008,-132,2013,1175,252,636,-220,5180,2730,252,3477,-175,1872,954,1020,4690,-480,2814,1710,147,1924,-522,3876,2010,688,4556,30,819,333,1624,5700,-360,2580,1496,-41,2418,-81,3752,2700,336,2340,-682,3034,2480,243,3082,-612,1428,546,1426,3700,-840,1809,736,697,2601,-42,2300,450,1029,4355,-208,2009,561,114,2300,-324,2940,650,715,2842,-132,2052,414,2484,3840,-300,4510,2320,252,1890,-270,5106,2304,960,3608,-800,1239,385,1350,4366,-324,1312,-44,840,1770,-561,2430,-3599,4968,53546,-2153,-90048,-65100,112506,117558,-91561,174984,2342964,4977736,4729664,4873820,5007620,4804639,2455636,-93515,792948,189584,94858,217862,256510,55175,-4908,25075,-52156,-8938,-430,1358,-4294,-2450,354,680,6490,545,-600,1064,760,5782,2478,520,3905,-220,5220,3952,500,1947,-1155,6630,3834,1936,3567,-2028,2000,1386,1595,4284,-2376,3828,779,1677,3920,-1134,1914,378,2640,6264,-361,2322,392,1566,4884,-27,2280,-576,1273,3726,-192,3828,1776,84,1292,368,5963,2691,1080,3432,-600,1848,748,1840,4806,-936,3060,832,1100,3960,-396,2280,810,1128,3876,-256,2552,1020,702,2964,-330,3290,969,496,2378,-527,2574,572,1056,4060,-425,1736,205,1519,3960,-319,3024,696,1150,3024,-125,3087,300,1595,3717,-516,2254,270,1625,4914,-50,2585,236,3870,3136,-140,5135,2574,310,2068,-72,5490,448,1988,6320,858,2046,880,504,2257,-259,5254,2720,-26,3234,-760,1820,481,1480,2886,-1054,64,147,2470,4030,-299,2280,156,1953,4096,-81,4355,1178,966,2907,-92,4158,960,1512,4824,-57,1680,459,943,3300,-645,4424,2304,60,680,-495,3321,750,2752,5372,-640,900,-187,4070,6318,-405,4160,1020,880,2115,352,6142,3354,945,6045,1710,-16192,-45402,54752,185671,94041,-74305,-188883,-129390,60352,1447068,3129419,4807313,4618944,4532605,4421487,1536790,-41492,743008,199361,-219198,-217536,0,241647,154356,1012,7936,-4469,11118,8343,0,4551,-1254,-288,1312,410,5123,-729,280,3116,352,4968,2214,490,2491,387,5250,2280,1920,3864,-1161,4214,2597,43,1725,-1560,5280,1904,1935,3440,-1421,57,414,1872,4048,-2176,2700,640,1131,2109,-774,2376,966,4672,2160,-464,2496,-444,2236,2970,-714,5256,0,1711,3968,288,2808,-540,2074,4536,0,2832,0,1320,3456,432,3721,504,1092,1872,0,3245,1152,1620,2440,-312,2646,273,1750,2714,-414,2250,-200,2262,3339,-287,3500,368,1104,2450,180,3538,371,2214,3010,-304,3168,539,1872,2989,-224,3132,-129,2280,3300,-308,3224,392,1440,2494,84,3840,150,1204,2914,-208,2295,-172,1820,3776,-72,1892,-188,1508,3060,128,4875,1239,1128,1936,112,3132,240,2240,5250,-315,2162,-88,1652,3078,-104,3220,-490,1080,2530,110,5782,1710,988,1058,371,6552,1870,2805,5096,-1500,2546,1196,530,2730,-1496,3060,-572,3400,2144,-52,310,-540,3388,4080,374,5372,-32,103,4960,-5814,-70763,-125664,76364,179725,-2187,-210017,-297920,-139859,1384933,4095168,5134356,5011825,4765473,4426669,3913924,365885,809259,762304,100584,-178443,-126382,130260,283770,71825,4296,9288,-1716,8343,4814,600,3375,-2465,624,1971,1092,4841,-996,760,1450,957,3978,219,2016,2773,684,6460,2030,1056,969,-195,6192,2242,2394,2465,-2065,2720,475,2405,2064,-1824,2940,464,2832,3060,-1225,1924,-240,3360,4620,-32,1296,-1080,3822,2756,460,5530,1254,52,567,1620,5694,636,2622,3476,-950,1716,-63,3132,4234,-288,2679,-616,3450,3564,123,3770,348,984,1363,672,4623,-270,2788,3770,-174,1927,-348,2880,3484,260,5100,174,1566,2021,396,3420,104,3276,3525,-150,3618,172,1683,2679,-68,3843,0,3100,2948,-180,5202,0,3366,5856,0,496,-2332,3060,13158,0,11187,4704,-78,-48,4558,4420,6063,3213,5763,-1617,300,24,4816,2795,-1786,3150,-969,2211,2850,108,2744,-817,3306,3600,589,3417,57,1188,1127,1615,8265,2952,775,153,-74,2948,0,6545,3515,-2091,1675,-39,4810,2814,0,4928,-148,3519,3953,299,2535,-630,2840,2240,268,1725,-5487,11063,46956,-32040,-152863,-76790,150750,53775,-180141,-88023,2316496,5320776,4919605,4934306,5055750,4714992,4092881,133224,1237132,709935,235355,159679,112350,-6576,57051,65520,-80375,-19095,2163,2130,-1500,261,-1971,2340,5250,-1005,1680,2280,450,3480,-1022,2028,2394,840,7280,2584,480,880,910,6318,1482,3024,2821,-2482,3840,-44,4680,4536,-468,1836,-930,6570,12840,144,5976,1344,684,918,1500,5310,-8560,7200,4150,-480,2090,108,2550,2655,11200,9400,800,460,660,-252,3876,990,8540,3760,-688,1196,-132,3780,2356,-1034,3782,-240,2408,1976,462,3300,-155,2162,1426,342,2744,-418,2562,1760,210,1702,-598,4218,1568,506,3294,-672,3150,1850,936,3774,-448,2484,1404,1239,4950,200,1872,1989,532,2808,-416,4130,3168,-172,3380,117,1786,2028,608,3430,-192,2279,2145,-186,2632,-156,1976,1813,136,1855,-1023,5828,2968,164,2808,296,1258,140,2325,7238,265,2583,2484,-232,1517,-112,5775,3388,-295,4347,414,1305,820,1512,4389,-748,5310,4140,-180,1395,-700,4806,3648,697,4950,-300,940,620,2590,8099,1664,1722,-275,335,3619,460,3034,1274,-1950,2520,120,3417,2695,-230,902,-546,7125,2580,1032,2193,-700,510,264,3276,3420,-2838,10965,33282,-30700,-110007,-26364,189420,77724,-131934,-346035,490716,3292575,5224254,4974008,5028650,4741164,4283857,2275689,-135676,1169025,549794,160744,17840,-72468,79291,189501,28676,-37605,1816,213,-576,4224,-2183,4407,5360,-1311,568,126,2808,5504,-1888,3822,2120,893,4118,-420,2340,559,2784,9114,795,2021,290,850,5760,286,3219,186,-1245,2924,-25,5185,3744,-748,1517,-64,6640,2856,180,2379,-1092,2584,2624,512,1760,-1470,2880,1872,1624,5092,960,544,-22,2590,6480,1104,2610,804,-1020,2312,-1,2590,1539,-966,1935,-360,5304,2788,-29,1085,-418,2520,774,2100,4992,164,1102,527,1298,2940,-342,5040,2432,-164,1444,-374,4189,1225,893,3744,-266,2337,646,1364,5538,-775,3572,2340,252,1767,-646,5518,5616,1488,4712,0,1908,217,2584,5518,-288,2400,2046,0,2385,-259,5372,1426,220,3050,-66,1786,810,2294,4266,-644,3960,2196,78,1974,-378,3720,864,1680,4176,-468,2301,1092,945,2940,-384,4440,1682,624,3304,-338,2520,1960,816,3330,-551,2688,896,1105,3080,-160,1292,90,1273,3584,-64,6375,825,284,2318,-22,4288,2688,92,2325,-465,5467,2074,561,3072,-798,1426,899,2046,5929,-918,6630,9888,-10279,-76694,-63017,146850,171556,-56349,-255710,-190756,326764,2076923,4984862,4857175,4814708,4468267,4240852,1130646,-7852,671600,247752,-56758,-183685,-2141,260876,166056,650,10000,1188,1352,6035,21,4961,3672,-2550,1375,198,1404,213,-1113,3485,702,3570,1430,-756,1755,87,3021,5185,-676,5180,364,3360,7800,29,3078,1098,1612,4218,-280,5280,7320,-84,3888,234,1488,-684,1580,3960,-122,5712,1440,-650,720,372,5688,1620,92,3264,-340,3200,540,1612,4104,0,1794,384,1156,3072,-288,2808,1482,0,819,-368,5712,960,928,2592,-520,2747,483,2392,3864,-580,4350,1488,1020,3484,-276,2600,552,1972,4725,-124,2346,676,732,2350,-216,3876,756,240,1518,-494,4941,1457,810,2223,-432,4920,792,2356,4860,-341,2700,1014,1656,4018,-624,5022,2220,451,2820,-520,2990,1323,1430,4293,-740,2665,1645,880,3250,-513,3520,530,1220,3705,-140,2068,600,1216,3776,-250,3538,855,232,2162,-240,4480,2183,1050,-754,-720,5568,1840,760,2800,-629,2646,273,1632,3744,-1400,2470,440,1632,4095,21,612,-780,3185,5070,11,6912,-325,84,900,440,6097,2730,-30,1584,225,7812,1250,1188,3417,-665,1560,154,3510,4185,-1825,10098,25653,-21413,-107640,-15498,176514,99090,-147168,-292842,19114,2017330,4866570,5030208,5019334,4835592,4332384,2865780,-20482,1079370,604207,149952,-31052,-122976,75215,243390,67375,-28341,5911,528,938,6384,-1610,3192,1875,-2491,2300,432,2680,2622,-1978,1992,360,3551,6500,-540,2640,-253,4214,8134,408,2345,-780,920,5940,22,5292,588,-1275,2135,48,4600,990,128,2268,-216,6450,2440,104,900,-484,5248,378,2556,4386,-520,1352,180,2772,3936,-351,6177,1479,585,1872,-240,4599,624,2379,5220,-87,1710,-648,1776,5110,-78,2379,300,177,1102,972,5476,1820,252,1482,-105,3599,232,3726,3774,-2340,2520,1026,924,1708,-272,5037,1479,10980,2640,-513,2904,532,1972,3577,-87,7198,396,1235,3300,-190,3132,637,135,2596,-252,4550,1050,480,2268,-247,2520,616,1428,2800,-588,3024,882,931,2184,-336,3213,600,1736,3465,-294,2842,546,1320,3150,-345,3844,1320,728,2552,-406,3740,1550,874,1736,-1080,4732,1320,1421,2720,-589,2052,-84,3600,6825,-480,2842,520,1178,2916,66,4720,1500,960,3016,-234,3782,1134,924,2065,-600,4260,988,1008,2684,-441,2436,560,1710,3408,-513,3360,352,1323,2726,-384,3135,480,1539,2160,-408,5859,1692,936,1375,-410,4731,936,3774,4464,252,1638,-150,2337,5312,-364,4958,-816,-490,2604,6,1539,-128,994,4422,425,4690,682,55,594,98,5964,2772,675,201,-726,6050,-396,5390,2940,-3066,11718,3372,-139062,-232540,39546,246510,74095,-143445,-281666,1823128,5532982,4961558,4927871,4912272,4553667,4161870,758681,639068,1158066,424807,179440,-2192,-68832,116490,141449,-48462,-13671,5249,480,73,3744,-1870,3993,2706,-1488,2378,84,4453,5733,-1122,2508,286,2832,3690,-532,4148,-588,3036,5624,-143,2360,-720,3572,5644,12,3312,-1776,1034,1760,512,6486,1992,37,540,1224,8554,792,1408,1518,-1224,3663,645,969,455,-1080,3652,286,3468,5148,-1032,1159,-20,4500,5063,-247,3808,-1820,2640,4819,8,2925,-549,1558,3136,1540,9570,1422,102,1872,153,5166,56,3036,3393,-504,2856,672,748,2142,-41,4830,0,1988,2128,-378,2552,476,2255,2590,0,4899,-38,1620,2088,14,3740,296,2345,5796,71,5340,1260,-13,2040,-376,5561,5964,6887,5874,105,507,-420,3478,4565,-994,6111,594,-168,1521,434,4514,495,924,2520,-333,3696,1053,1085,1098,-477,5742,440,2590,3234,-486,1575,-54,3869,4959,-341,4970,686,1008,1755,99,4891,627,1643,2272,-546,3976,546,2343,3752,-253,2703,-96,2691,3763,-294,4260,504,1334,1734,108,4209,318,1302,2100,-288,3654,170,2304,2440,-162,3906,455,1344,1701,-205,4608,360,1404,2016,-416,2310,-108,2665,3168,-297,3172,-64,2080,2255,176,4810,616,1749,2135,76,3965,-328,3652,4662,-126,2067,-595,3192,2623,312,5727,693,441,741,884,7392,559,2262,2277,-396,3136,114,3172,5280,65,2204,-132,-108,-30400,-8136,132492,129720,10610,-80218,8512,-5910,20425,2787936,5217144,4687216,4562300,4694864,4751824,4054260,-21371,1346680,422752,-84552,49450,289120,310387,98784,-497,-26855,-21648,4212,-322,6370,3336,-2352,85,-533,7011,2916,-700,4214,624,1960,2210,-767,5301,189,3600,4730,-312,1520,-858,6667,8091,-21,2952,-770,900,2204,561,4407,-2697,243,1681,392,4425,580,714,117,2387,7614,697,1204,1298,-470,3108,15,4620,3572,-527,2838,88,2491,2368,-245,4260,-380,2263,3630,-92,2279,-480,4361,4615,250,3796,-385,1518,1677,315,4984,130,1500,676,343,4686,312,1071,1568,-72,4140,-143,3626,3053,-248,3264,280,1980,2415,385,4736,301,1984,2688,-200,2695,-245,2275,1856,-217,4096,462,920,1078,217,4680,-87,2387,1728,-506,2668,-572,1333,2232,144,7238,378,2806,1508,1924,3096,-155,2880,3948,-280,3172,-260,5476,3816,120,2340,-840,1660,2340,360,4736,689,1224,897,900,6557,495,1944,1344,-559,4131,253,2610,3318,-330,2970,-210,3225,4536,-209,3306,84,2190,2420,260,4950,728,703,1026,-92,5548,-88,1378,1254,-715,2442,-126,3082,3344,84,2703,-532,5335,4356,98,2479,-704,3066,1275,1232,6499,1188,406,37,1040,5840,-400,3036,2680,-342,812,-30,6630,5680,304,6210,4120,-6004,-26460,53190,229908,158259,-40964,-184860,-150277,-38868,1461915,3453804,4909212,4763373,4631088,4502368,2407350,61008,889525,352588,-150282,-264988,-45108,236736,207900,11904,9775,-3620,6624,13888,504,5508,1260,-1584,1547,-560,3264,0,-1536,5457,-30,3894,3731,-924,1836,0,6528,7918,63,2301,-738,2673,2646,1517,6426,-1036,1701,1755,270,2025,-1862,3515,3087,476,5670,45,810,525,1672,6745,-245,2414,1960,-36,3240,-168,3124,1491,230,5609,112,2088,2280,344,4828,-378,4048,3397,-88,3074,342,2193,1088,1080,8096,430,1078,1219,-351,3060,-112,4200,3772,-240,2303,-391,3120,2700,196,3990,41,1440,1316,714,5680,540,1568,1995,-22,2760,-420,3150,2343,-324,3136,-70,1210,966,660,5025,-231,1782,1512,90,4125,273,1936,737,371,5148,-27,2925,3000,-351,2200,-121,3604,3120,38,4290,-160,1485,1200,451,4080,-160,2318,1914,172,3135,-360,2993,2400,144,3843,0,2236,1425,660,4891,-240,2304,2331,0,2080,-350,2816,2077,288,4416,148,1155,1040,518,4096,124,2592,2553,-116,3025,-130,1887,1856,-152,3078,-444,2320,1540,215,3009,-58,2660,1881,516,6160,-252,3139,2537,46,3640,-297,2537,2387,360,4380,-602,1725,1300,369,3894,341,2600,2580,868,9675,6650,-33702,-114312,-24145,145470,95030,-129208,-259290,-256956,892692,3910856,5184590,4932552,4804540,4491020,4415970,1278984,217200,1079324,318870,-125628,-167398,49565,294398,158880,-4000,11472,-3375,5871,8547,-713,3618,-480,-1500,2592,-525,4532,1665,-1333,1917,76,5550,5400,-840,2816,-405,3741,4189,532,3404,-1500,3600,3840,594,3393,-2065,2772,2484,690,4050,-1200,1628,858,1820,8514,54,1334,495,1200,7178,528,1352,-602,-84,6380,-77,4560,6305,96,494,322,8568,7480,259,4408,-455,-260,570,1932,6630,-272,2479,1972,329,4810,0,2562,2145,132,3484,-306,3525,2368,0,3660,-264,2079,1092,441,6150,128,2090,1680,320,4032,-126,3136,3034,-136,3300,0,2160,1536,258,3968,-555,2618,2460,0,2538,-360,3182,2046,720,5544,-123,1392,1175,630,5180,0,2880,2088,123,3712,-75,2562,1680,0,4140,0,2255,1856,114,3660,-480,3330,2898,0,2750,-232,2470,1620,940,4588,-168,2178,1350,320,4420,108,2491,930,212,5280,27,2560,2516,-100,2650,-255,3922,2880,-40,4160,185,1025,400,1003,5772,-1008,3480,2080,-270,2952,40,3599,2496,1848,8004,-480,4914,4968,20,1342,-1376,6996,4600,720,6006,-276,-248,308,2924,10600,600,2688,2244,168,4588,-112,4964,4200,0,336,-1190,2268,-9250,6176,122421,90678,0,-13038,76790,117072,-185625,565876,3721263,5047742,4758072,4863174,4958440,4773936,2511135,-72567,1078434,266532,103917,232752,264420,61656,-21983,6138,-57834,-11058,-329,4264,-1170,-2548,1573,-1054,4522,194,-525,3854,130,7007,1936,-867,2508,-18,8250,6110,208,5082,-368,3264,2046,342,9020,-2080,1296,4224,-161,576,-1860,4256,3854,1728,7047,1216,-189,-81,4560,10976,-799,3834,2175,-760,1620,-27,3420,1176,1411,7668,-250,2720,2280,-69,1935,-432,8300,8856,150,2108,-1444,2208,2322,720,4900,-410,840,341,2128,7296,-162,1120,735,235,3976,-165,4032,1824,156,4256,-45,2914,1704,825,5616,48,3536,2736,81,2976,-768,4840,2574,-72,4420,-72,1566,864,1792,6864,-330,2700,2405,60,3538,0,3304,2574,320,4725,-370,1620,1464,0,3835,132,1568,945,640,3780,-192,2178,2535,-112,2499,-390,6208,3850,208,3828,-78,1568,1020,1404,8148,550,1378,1566,76,3304,-180,3942,3864,-180,2385,-486,2774,1534,324,4745,-92,792,495,1422,5986,-182,2232,1235,144,3916,99,5451,2378,266,3410,-684,7992,6319,-36,1173,-1276,3724,1375,1836,6882,-1491,268,136,2816,9114,-100,2397,-62,1638,6365,-40,4224,3441,28,235,32,2184,-17290,3900,100188,81215,-15295,-11020,70592,51184,-91910,965640,2613996,4798270,4767670,4972224,5073800,3464060,386325,497676,270354,-144276,-28366,216576,310500,70115,3060,-28140,-18840,6798,156,4704,945,-2331,-324,140,6600,1957,-576,3920,-21,3465,1377,120,4510,-342,3264,3040,126,3300,-493,4620,4018,810,3740,-1520,4032,3660,435,1540,-2450,4950,2420,1840,6336,-427,870,200,2900,8690,-748,3450,1518,336,3886,-200,4060,1975,731,5250,-529,4224,2613,1660,3850,-400,3354,1890,1058,5720,312,8632,220,800,5928,-405,3174,780,-344,8112,-32,2300,456,975,6762,-144,3010,2184,320,2484,-126,5200,6370,240,2380,-1064,3600,1836,798,4960,0,900,306,2128,6030,-748,3154,1922,0,2475,-117,4088,536,1430,7470,155,1872,495,793,6643,-184,5265,3510,-155,2496,-135,4575,3822,1265,5913,-156,1984,1560,645,4950,-126,3300,1606,188,4928,30,2408,1320,141,3480,-792,3713,2156,-58,3864,-20,2820,1044,2520,6083,-924,5916,3933,14,1980,-684,6440,3465,1254,6018,-513,966,528,2052,7268,90,2052,944,450,5106,-176,3780,4187,-6,3078,816,-5400,-41292,14619,156450,119780,-6660,-123690,-106692,-107136,383346,2313789,5022045,5023980,4981680,4962790,4742564,1156672,55647,684213,-62916,-168948,49368,276727,324181,17490,1620,-11397,3304,7372,-88,5566,-429,-1170,2120,-580,4602,-679,-364,5198,0,4368,3286,-1120,2886,322,10192,7458,0,3080,-806,5096,4514,2300,7392,-2574,4326,4180,0,2366,-2318,4950,3498,1404,6489,-608,0,234,2356,8217,53,2304,1890,440,5265,-90,4712,3403,-30,3712,-360,3905,2511,400,4256,-369,2160,1392,480,3763,-620,3000,1456,387,5040,-264,2400,742,1320,6750,286,2236,1540,550,4260,-182,5214,4770,-242,2184,-484,4200,2698,520,4424,-689,1584,630,1210,6888,0,2200,840,832,5832,-225,4235,3198,0,2970,-270,5696,1944,960,7315,780,1376,648,1134,8544,-456,5440,5225,-240,1935,-216,4725,3840,1007,7480,0,612,1035,846,5175,-440,3710,4312,0,3009,-368,3290,2622,451,2660,-833,3344,3245,528,3920,-532,2665,38,969,5168,495,1980,1400,798,4615,-10,3933,1088,-639,6120,550,3135,1704,450,4416,-656,7668,7344,66,1265,-1224,4815,2688,2542,9288,648,-141,299,3468,10593,-462,5208,3268,-324,3243,78,3740,2376,660,6216,-1482,2376,-690,-1806,52470,42552,-126600,-157472,85605,143418,-20090,-250131,1208718,3971520,4853000,4749696,4899240,4780600,4230954,1009665,301546,846720,312800,205344,191952,48400,-35802,87480,-29036,-40446,-2448,2852,-602,-1870,1955,-504,5490,1177,-1026,2728,-14,5015,2760,-462,3735,-176,4788,4664,-62,3245,-768,5808,4648,544,4536,-1908,2976,3630,352,2024,-2576,3468,1944,1800,7200,594,528,115,3312,10506,288,2600,1500,-522,4224,10,4680,3296,-312,3016,-380,5046,4840,-68,2405,-288,3159,2088,950,5916,-605,2686,629,216,3888,-1188,4950,2108,572,6083,119,1248,576,2079,8910,-434,3900,2926,-203,3016,-132,4662,3330,518,4500,-494,2175,1856,440,5106,-185,2183,1500,572,4875,-512,3160,2415,185,3599,-200,3036,1885,624,5293,-385,2220,1464,440,5934,551,1599,402,693,4800,-216,4345,4214,-342,1927,-144,5103,4000,342,4977,-294,1170,1175,1080,5346,-50,2394,1764,264,4160,-400,3285,2046,45,4473,-84,2640,1024,1184,7227,62,3015,2556,114,3660,-304,7104,6336,-70,3886,-324,2394,1708,969,7392,128,2345,1682,360,4032,-476,4080,3465,-60,3819,-435,2880,3008,663,4640,-540,2130,1254,735,5472,705,1989,-116,924,7029,110,2793,2128,-690,3876,28,6468,4653,0,2394,-924,4140,4256,238,3780,-1175,0,1260,1584,5220,-1064,1292,1350,925,4176,120,2640,754,1083,6460,150,1813,1296,-160,2695,-312,3192,-6545,-3305,75705,38124,-83560,-103145,51408,119952,-144606,144098,3479340,5161566,4645936,4620475,4735962,4660992,3817974,-109872,1452540,577569,202384,208525,238788,87040,2033,28728,-76110,-25596,-1183,3800,540,-2680,-98,-570,4838,324,-910,3800,30,4087,2450,-640,3280,-93,6860,6650,-156,3172,-825,6080,5040,1085,4802,-2660,2834,3068,429,3135,-2646,3535,1519,2356,10355,413,585,198,3318,11110,279,3162,1045,-469,4230,114,3397,1320,-648,5100,-11,4087,2914,-855,2967,-420,7848,8700,4,1464,-1550,5175,5244,1050,6431,-435,244,576,2800,9545,-228,2130,1770,180,3050,-576,5264,3818,81,4970,90,2052,1150,1200,7520,-230,1701,1820,-108,4161,230,2700,1920,250,4536,-442,2700,3723,-230,2862,-360,3900,2160,884,5400,0,1541,1643,780,7098,150,3380,2160,0,4891,-62,3536,3003,-235,5200,300,2464,1606,102,5100,-660,3901,4000,-180,2688,-396,3978,3825,780,5644,0,1008,864,972,5850,153,2301,1768,0,4032,-180,4050,3225,-105,3481,-442,4089,3456,320,4950,129,2100,1357,952,7482,336,1824,2376,-99,3720,-368,4368,4386,-161,3021,-288,2442,2046,576,5772,765,1035,1007,384,5846,-264,1944,2664,-345,1845,-513,4224,2607,344,2970,-792,1771,943,1323,7216,-33,1118,-715,1980,6237,-759,4508,3444,24,286,650,9990,3078,2145,7728,-1008,3024,-198,6350,34188,30134,-98475,-184800,54096,292320,-38034,-247777,-277816,738283,2993640,5222800,5118834,5224640,4633809,4194650,1151854,50274,808184,375092,104466,-22520,-43860,161250,166010,-6264,-7362,5214,-690,930,2420,-975,6370,1856,-1008,2772,-60,5301,2904,-949,5194,80,3416,2856,-164,3363,-984,8176,9116,-115,3355,-578,3485,3481,1517,6832,-602,1863,3080,340,4505,-708,2738,2440,252,4860,-336,1360,1537,600,5476,320,1872,840,312,5304,-261,3850,2516,-296,2756,-266,4264,3510,306,4928,-340,3071,1802,779,5986,-180,2108,2176,410,6308,-170,2829,2482,172,4526,272,2460,2356,230,4761,-272,3311,3139,-240,3420,-310,3404,2415,328,3542,-387,2340,1482,440,5550,280,2337,92,477,7020,0,2948,3150,-224,3135,-12,3975,4320,0,4355,-840,1820,1705,72,5475,288,1508,2535,1260,4680,248,312,1825,-312,4930,663,3780,2880,-216,1170,-650,4576,4590,-493,3600,240,1566,900,1586,7480,54,1769,1560,-294,4756,40,4453,4505,-44,5490,598,2793,2624,-100,6059,265,3608,6480,184,1539,-1632,6050,4897,-160,5822,504,-376,513,3468,13189,295,2048,2343,-252,2961,-57,4896,4905,-160,2816,-1683,3168,-1449,681,44928,53100,-57920,-98120,116841,201608,-41538,-150274,454272,1790060,3442620,5057640,5262427,5248681,3460296,636844,35672,398971,102708,129276,197542,98513,7664,62530,-6076,-31560,-1242,2223,688,-2967,-440,-1365,5704,2520,-1127,3315,-72,5382,5500,-1134,3726,0,3185,3910,666,7566,0,4104,3807,0,4290,-828,7918,6693,0,4940,-1175,3880,5214,216,5136,-2898,2176,5525,350,1455,-1422,1044,1680,2478,1984,-425,1274,-60,738,6264,-665,5074,899,300,9100,16,2501,1152,1121,7740,-29,4200,2700,200,4941,0,4661,3330,44,6090,405,2100,1539,0,7189,-444,3432,4350,-285,1764,-228,4959,4823,528,5772,300,1159,1386,468,6525,318,2816,3108,-156,3538,-99,2964,3225,-186,4416,294,1612,1798,111,5624,344,1891,2553,-252,4030,-62,2516,3478,-208,3843,74,2340,2470,68,4556,611,1378,1449,-102,4875,342,2142,2613,-494,4028,299,2754,1200,-612,6678,663,2546,4104,-221,3186,96,4284,5194,-697,5025,-702,1632,4130,6,1449,-2058,4223,2025,533,8640,700,-72,851,1890,7931,-837,2788,3690,-420,6264,888,2250,1463,1798,5848,-287,4116,2349,-2664,14650,13129,-78764,-190834,15953,227850,59211,-219447,-271318,516177,2542176,5376637,5253095,5280075,4877232,4288113,1200096,-29880,823680,399795,108335,-49962,-122320,130140,173664,5080,-11440,6435,329,1694,7095,-2400,3350,508,-1846,4368,140,5698,7224,-1000,1700,52,4047,3696,-1520,9546,1960,1650,3808,-143,2679,-1386,9196,13803,210,2574,-1680,1133,3760,882,5808,-214,-420,1794,1080,7004,240,1554,1008,94,5600,1472,1188,272,-201,7548,-168,3666,4240,-352,1287,-92,6432,6120,296,5460,159,803,2223,437,6432,0,2590,3290,-78,4745,684,1235,1876,0,5740,1222,1170,1625,-540,5525,-28,3157,4346,-624,3060,425,2385,2465,46,7084,901,1560,3264,-425,2968,0,3266,5428,-306,3445,-192,1875,2352,0,4828,944,1008,1484,160,5550,924,1127,2652,-720,4816,392,2320,3108,-440,2989,-78,4140,5332,-392,4176,882,1020,2257,102,8464,310,2016,3960,-378,2754,0,4029,5336,-190,5544,1045,990,1674,0,7584,1740,1672,2541,-798,4400,31,4420,7488,90,1408,-330,3108,4320,-38,6460,1560,-132,608,540,5846,486,2622,4028,-600,2948,38,4158,4582,-180,3864,-424,2790,3484,-48,4312,-348,1540,2520,328,8556,1040,1104,1456,348,7931,990,2009,3312,-440,1610,-260,2552,-9167,-15004,76244,77256,-46332,-74200,21420,93280,-153436,298716,3460544,5128940,4601610,4657640,4776660,4642800,3275600,-130086,1363312,406300,56810,160381,229690,76650,-70300,9504,-67430,-21250,-728,2847,1133,-2625,4477,-1152,4400,3250,-1820,4485,407,2775,3146,-2088,4320,416,5135,8395,-814,2109,-546,6902,11880,208,2844,-1752,2332,4503,336,7854,-660,-1014,1548,864,8692,1975,768,2376,330,7722,860,1908,4182,-1075,3936,1188,2420,2277,-1360,5141,2142,3569,5248,-660,2464,-230,6664,7566,-294,4980,-384,1800,3696,120,5488,-390,560,2940,210,6570,990,684,2240,205,6480,637,2240,3285,-420,3705,520,2501,3969,-299,4096,270,2044,2860,-377,4148,1127,1081,2112,-252,6497,792,1856,3876,-299,2303,-33,3066,5518,-252,3520,513,897,1225,45,5767,1302,728,1925,-441,6624,425,2565,3555,-819,4368,770,3430,6240,-323,3192,495,2652,4956,-704,5460,1755,1083,2184,-363,5236,1239,2016,3588,-1026,4617,429,2277,5159,-357,3717,414,2850,5589,-330,5175,1675,1003,3599,-135,4800,828,2340,4500,-575,3894,1586,840,3008,-444,6318,1500,1380,3036,-988,4704,846,2146,4212,-675,4080,0,3230,5040,-684,4292,1664,1620,3400,0,6800,720,3154,5180,-352,3900,1350,1886,2480,-516,7138,1050,880,2925,-1080,3864,1023,2322,4128,-660,8080,-135,4240,7560,396,2376,432,3344,6969,111,8692,1890,-708,2332,-162,5700,1863,2294,4100,-567,4012,1166,882,4725,162,2914,250,-2754,-51204,-39820,105546,135765,12642,-98512,-10615,-177990,478155,4564820,5135136,4635405,4496338,4613296,4727921,3369595,-103505,1740180,455344,-137664,6402,242110,325142,110067,-4238,0,-17381,7552,-78,5390,5694,-2166,2496,0,3185,2596,-1482,4998,1209,2698,6720,-440,1820,0,4845,7854,-682,4047,1680,590,4056,0,2975,1386,2728,2850,-192,3068,2652,-567,420,-216,13888,1150,464,2444,-986,2268,288,300,1344,-1840,7424,3243,957,2856,-1056,2150,300,6640,10112,-690,2343,272,4400,9288,625,2490,-1185,1060,6603,64,5400,1404,-1800,1290,420,8480,3162,-360,2052,-468,5976,344,2212,4560,-544,3105,912,2376,4233,-280,7742,1938,848,3657,-600,5544,1530,1995,6762,-102,2597,159,2125,5544,-450,3192,1380,156,2058,-132,8415,2706,780,2744,-520,3536,882,3300,6732,-205,3276,1225,1508,3604,-588,6150,2244,290,3654,-675,4234,1696,1624,4592,-561,4118,1740,1647,4307,-416,4002,1456,935,4189,210,4209,1180,845,4278,-494,3795,2301,-182,3450,-660,5525,2108,1235,4830,39,1456,800,2409,5695,-442,5070,560,-47,2688,-384,5694,1943,689,4134,-464,3901,1824,1080,3354,-986,4081,1378,3480,5727,-342,2565,387,2992,5621,-208,3120,1173,603,3876,-144,7216,2044,448,3172,-187,4154,1836,1008,4510,-756,4424,3111,330,1798,-945,3906,-825,2106,2133,-11016,23550,43210,-76090,-135780,33645,175812,54999,-135648,887050,2625380,4902370,4955970,5181330,5152644,4271589,577132,324310,331256,31570,158410,304920,180594,16776,23894,-27839,-23312,-672,2730,5412,-3713,-792,-1950,1358,1736,-2784,4290,2829,2679,5247,-1200,1064,434,3944,8800,345,4560,1007,1312,6992,341,3196,1040,-480,7840,114,4756,1840,-814,4089,117,5760,1764,-480,4176,0,4292,3045,-468,2400,-612,6960,2808,0,2436,-1225,4836,2160,1496,4872,-468,6072,462,1400,8463,2322,1496,728,876,5280,-154,560,3094,-1376,1530,-442,6424,2400,686,420,-1122,2624,3060,1700,4752,-1080,4263,1020,1815,5084,1020,2850,756,2511,6960,-68,3245,2418,-810,3591,-294,7161,2240,126,3540,-156,3240,3339,756,3157,-952,5670,2940,200,3660,0,2088,1476,1972,6030,98,3200,2684,0,4002,72,3480,2077,-108,4352,44,3696,2760,-92,3120,-527,3942,3536,-42,3960,-440,3496,2028,663,3796,-728,3108,2700,627,5548,0,1950,1144,896,5254,-315,4902,4672,0,2150,-638,5376,4189,315,5332,64,1200,946,2320,6720,59,3240,2604,-55,3350,-44,5680,2640,-74,6192,504,2805,2211,104,4686,-264,5624,4472,-516,2907,-297,3848,4158,336,6764,208,4171,6669,-2754,-67118,-112833,95130,203988,8712,-200014,-217854,-128520,1357779,3818412,5193645,5076780,4748040,4530214,3850616,336420,814368,677976,55032,-212640,-111180,261443,314336,61677,9248,8904,-1368,11808,3723,8449,7752,-2002,1734,2436,1425,5904,-1898,7242,4233,1222,7854,957,1975,3072,1638,8772,1992,3008,3850,-814,8295,3392,1701,-172,-2520,6400,1500,4810,5250,-2173,1539,40,9870,4900,-1620,5265,100,3034,3306,800,5358,-588,4212,5427,-102,5772,638,2280,2337,660,5928,871,3009,3042,-594,4161,246,3135,3268,-598,3599,-468,4374,3577,-294,3876,-301,2944,2745,552,5913,-196,3234,3196,371,4736,-135,3036,3723,156,4026,-705,4081,4588,114,4356,102,2379,2684,810,6314,186,2318,3234,-72,4148,-176,4212,5412,-132,4575,196,1908,3332,304,4290,-990,4004,6075,-56,1908,-1323,9652,2090,855,8008,1782,602,1080,1944,13462,152,3591,5280,-682,2666,390,5256,7526,-188,4662,1020,1612,2976,-429,4964,852,3008,3700,-765,3952,672,2046,3604,-420,4032,0,3465,5548,-434,3906,265,2030,3339,0,6468,2190,1426,2457,-300,5046,742,2970,5544,-630,2346,-780,6300,8091,-350,4686,924,1281,3468,760,8820,1674,1550,4757,-672,5734,2448,1558,3024,-1116,6448,1742,3360,6862,-864,2665,-252,5022,8320,-910,4970,584,1416,3900,301,6237,960,2065,3195,-360,3009,-5220,25929,108801,25728,-125375,-96660,98370,109446,-163299,68139,2947518,5263520,4800375,4807224,4872594,4661112,3844096,-62263,1239084,567105,234936,232752,191694,10860,24576,49590,-90882,-22176,2392,6032,-258,-360,-960,1170,7191,-1056,2116,5858,-72,3456,-640,1027,3384,583,9200,4545,-192,2016,608,9480,4536,2491,5500,-2115,744,1596,3572,6000,-3717,3619,1375,2209,4650,-1786,2585,-300,5723,6468,75,1551,-1800,6016,5885,78,5044,-420,-189,2277,1836,11648,3424,819,3172,355,6930,3864,1785,2275,-2272,6930,2623,4260,6380,-1848,2765,150,4544,7920,-1247,4620,696,1914,5056,-252,5184,936,1769,5236,-300,3712,192,2688,5508,-455,4941,1156,1325,3776,-93,4608,884,1925,4617,-612,3869,708,1829,4608,-364,4125,399,2304,4964,-360,4307,896,1764,5625,-147,4544,816,1920,5475,-280,4851,1725,1071,4402,-348,5248,1650,1300,5852,-391,3621,1302,1450,5002,-924,6370,2204,850,5041,-336,3150,122,3234,8526,-522,3150,1562,912,4410,-76,7315,2523,774,3024,-858,4674,2380,2394,7220,-870,3010,864,2457,4592,-986,5418,2128,1500,4620,-270,4473,392,2030,6966,-392,3000,1188,690,3976,-238,5810,4617,644,2880,-648,4002,784,2074,5644,57,3174,0,2772,8352,-322,4575,1700,-60,4968,0,7007,4800,805,3825,-800,4920,2304,1568,5824,-800,2205,408,2144,6396,-416,3087,960,1008,3591,-576,6633,-78,2015,36288,18405,-132993,-124203,162648,222948,-2077,-231880,122688,2241729,5017847,5002984,5127930,5030968,4519552,2589576,-94785,940905,513432,264040,181600,-15638,-17408,159252,67640,-60255,-864,4830,-1440,742,1016,-644,7144,234,-336,4410,432,8162,3810,-357,3149,-86,9156,5985,1368,5159,-1020,4386,2546,2666,8393,-2166,5871,3216,1394,4902,-1406,6138,4620,1558,6180,-2304,3280,2109,1406,5445,-840,2952,480,3984,6480,-333,1976,-330,1064,7776,-336,8881,648,720,4888,-6,4636,3996,3822,12626,-496,10400,6674,-7,2318,-1147,8736,5664,4154,12350,-71,434,950,1302,6912,-912,5427,3420,37,3534,-450,3150,2664,779,5346,-828,3330,1995,702,4800,-370,2952,1650,1288,8010,-140,2847,1728,480,5832,0,3808,2581,224,5548,-297,3600,2511,0,5440,-261,4312,1900,616,6375,-93,3360,2560,513,5929,-550,5208,3315,150,5110,-256,4731,2541,1540,9486,-273,4100,2774,328,5727,-891,7140,4386,364,6888,190,2255,828,2106,11016,-860,4524,4116,-170,3190,-228,6552,4536,1360,8265,49,2720,2204,779,6048,-462,5576,4465,-44,6640,-760,3977,3744,462,5412,987,3344,3320,1180,10088,468,3066,1980,-315,5320,-1240,6490,5408,-342,5110,-270,1215,2800,1984,11990,312,3382,2030,486,8019,1000,3840,5777,-72,8811,1218,-8478,-71775,-39175,132060,115593,-25524,-204039,-83958,-115081,853325,3066619,4873014,4671702,4562415,4548627,4357820,722005,431959,649724,-123984,-235620,-12870,289117,348800,40385,4771,-12616,7728,14410,120,5764,640,-2911,1482,-76,10764,6026,-980,3696,8,4899,4902,-140,8580,644,3724,4788,-58,4761,-1376,7770,9680,-182,3344,-1596,3219,5727,832,7104,-704,1131,2288,784,8436,0,2002,2752,296,7134,676,1680,2356,0,7315,946,2257,3608,-429,3960,-310,5184,5510,-418,3721,0,2475,2574,470,9024,580,1368,2379,0,6075,117,3666,4794,-330,6120,741,2829,3402,-144,7098,969,2145,3570,-779,6141,462,3600,5278,-418,4225,-378,4100,5785,-176,2775,-116,1716,2600,171,8900,975,1008,592,86,6396,160,912,3916,-645,5859,384,2537,3444,-148,3600,-88,3784,5673,-600,4248,378,2812,3600,98,8624,1891,1275,2592,-477,8132,1008,3136,4998,-775,3264,-648,6042,9202,-441,4160,357,2050,4096,846,11970,2666,1197,2730,-301,7544,1536,3196,5460,-930,4047,378,3225,5336,-816,5576,624,2250,3905,-234,5175,464,2720,4756,-480,6600,1650,1378,3243,-264,6320,464,2920,4488,-840,3869,0,2772,4661,-280,4672,-102,2296,4891,0,7140,1003,2730,3520,60,6150,1407,2691,4845,-578,7254,1760,1680,3450,-504,3381,-1083,2550,1953,-10592,59640,90482,-50856,-104615,41572,164400,43134,-233686,1617735,4687361,4829201,4748240,4898932,4848704,4344210,785072,583296,769709,218784,186816,282114,86268,-74025,26688,-53376,-49419,-5952,2016,3402,-3432,5005,-2088,7784,6426,-2232,2280,486,6776,9581,-957,4816,294,2880,7220,-540,6083,67,1133,7998,-56,4640,-76,3240,7584,-10,6901,837,696,4292,13,8532,2880,580,2747,-378,9048,3330,520,2291,-1530,6612,1722,1890,4264,-1800,3640,319,4029,9462,-756,3060,287,3480,8190,-77,4503,0,1746,5372,-119,6003,2340,434,2736,0,10185,2765,1122,4761,-182,3782,384,4512,7980,-210,4356,2070,364,2501,-272,8272,1824,408,3300,-1080,4680,1394,1938,5016,-720,6392,1500,2736,6930,-170,3591,1254,2070,6580,-480,6080,2695,260,3339,-594,5658,2800,944,2880,-875,4212,1855,1647,5494,-640,4366,72,1850,5589,-350,4392,2211,864,4440,-68,6808,1656,710,4608,-726,3510,1980,2312,6624,-792,6319,2176,1628,4485,-231,4488,2808,2013,5696,-918,7030,3312,301,3102,-741,5002,2624,1998,7600,-240,2709,1175,1330,6150,-574,6808,4000,235,3843,-275,4410,600,1204,6808,-800,3713,2806,550,3150,-408,9804,3478,960,6478,92,2900,1050,4488,10716,611,3240,2870,-120,3770,-336,7040,3290,-793,3186,-630,4860,1690,1408,2960,-2660,22875,58292,-32526,-174960,-57460,200200,80697,-152988,-327000,1222156,4181398,5164560,5052060,5127850,4813467,4346067,1137088,210290,997334,463854,230886,96922,-35312,71247,151264,-22440,-19826,10282,4545,-1677,1632,-2409,1044,1716,-3312,7261,3825,1638,5814,-1387,666,429,6120,14385,1700,3108,2451,1577,7918,990,3910,0,-1920,7622,1204,4150,2354,-2100,3036,0,7488,4223,-1288,4600,-836,7980,5148,225,780,-2911,7038,13340,1178,6270,-1794,747,460,6319,20043,5510,1922,1320,2116,9130,1426,5251,4061,-3040,5890,336,5428,3300,-2170,4956,124,5680,3230,-980,4484,-150,5670,4620,-168,4189,-680,6510,4332,270,6237,110,2562,2537,980,6696,114,3942,3927,-108,4331,86,3038,3240,-98,5402,-153,4104,3266,-104,4402,-135,3087,3848,159,5776,-138,3848,3692,141,4284,-156,3869,3800,144,4810,-728,3948,5032,111,4818,-650,3888,3835,616,6048,0,2997,4158,676,6480,708,1936,2232,0,7857,504,4160,5280,-468,2552,-403,6862,7954,-320,5200,-594,3354,4292,676,8272,1886,2560,3835,387,6708,1332,3172,3168,-1472,5824,1121,1806,2652,-1206,4880,-648,5888,8372,-779,2478,-2516,6097,6560,900,7820,2944,2214,2773,8140,7007,1148,2700,2040,-2464,1404,-7285,70400,102025,28826,-117504,-53184,174020,55640,-132835,495360,2154450,4387729,4869888,5130040,5188960,4686600,923846,65016,375606,-8524,109662,337990,250264,-2190,-6468,-7308,-34650,392,539,6424,-2725,108,648,1653,8400,-588,891,3960,1025,8424,1728,1520,4144,336,7776,2970,3280,6084,-656,6720,1850,4088,6240,-2442,9120,4524,1189,1260,-2350,8906,2275,5402,7182,-2552,2581,15,7520,9516,-1330,5986,882,2948,6141,-49,6720,1092,2204,5084,-602,5494,345,3381,4872,-756,4814,1054,2623,4510,-250,5589,-696,4860,5976,-578,4514,-660,4250,6237,492,9450,-648,3298,7770,108,4675,-693,3198,11025,639,11834,5250,252,1815,549,8424,3360,6035,9882,-1900,2464,66,4026,9396,-1120,6630,324,3116,8096,-74,5082,1392,2345,4758,-204,8528,2208,2405,5775,-512,5025,549,3927,8528,-960,5720,1725,1952,5550,-180,4928,82,3360,7656,-851,4758,666,1400,4544,-36,8148,2958,2627,5850,-396,6860,3195,1440,4656,-1836,7242,2475,2156,5978,-1440,3200,96,4158,8568,-792,3430,1342,2112,6240,-66,6622,3108,840,6510,1958,-14058,-58032,49698,199176,82917,-76475,-195765,-136081,-84774,937440,2617428,5185524,4818150,4743635,4710990,2651286,269048,603540,408430,-235095,-311750,-65130,257370,256632,11492,9580,-10575,14910,17110,-390,8395,2220,-1224,1860,405,9230,472,1326,9344,-240,5472,1860,675,6890,-156,9384,7168,1120,5776,-1340,9600,11554,1170,3588,-2800,8330,4408,4087,8960,-1635,2460,1716,1850,6069,-2610,6649,1540,1485,6642,-220,2479,255,3150,9810,-946,13563,3159,215,3819,-200,6230,2250,2623,11097,-1209,3784,684,2800,7120,-700,5307,1620,2046,7920,-144,5250,1840,1792,8004,-140,4752,2160,648,5925,-230,4608,2392,322,5040,-504,4752,2449,610,6120,-312,3542,1820,1134,7040,-620,5917,3825,492,5159,-702,4860,3440,880,7663,-270,2706,1474,1728,8010,-430,3432,2528,276,4224,-506,5760,3649,530,6318,-448,3956,1664,1334,8010,41,3392,1701,1008,8686,-416,4814,3827,-39,4032,-462,6840,4747,848,6474,-430,2613,1071,1628,9785,-141,3180,234,870,7035,-119,6364,5665,129,3780,-171,11136,8295,147,4386,-2365,4730,2520,3819,11264,-869,1596,1938,2838,10340,-560,5159,2552,737,7220,38,4620,3102,322,5698,638,-1608,-44270,-1328,156520,71610,-49174,-154512,-46156,-41376,84812,2670608,5382052,4708900,4586010,4595688,4743578,3185952,-66430,1301117,252735,-186620,-23595,250914,388892,62832,-5475,-25880,-15855,12298,165,7182,2752,-2788,1875,-680,8456,2717,-1065,6930,-256,7544,8125,-850,4200,-494,7242,6930,1088,8832,-455,4500,4125,1118,7548,-2646,8976,8256,133,5040,-1595,4343,4218,2142,12672,430,1292,1904,1711,9191,399,2856,1632,-350,7344,340,4071,3276,-294,4032,-544,8050,7452,-440,5037,-252,3948,4248,1504,10235,-621,4180,3796,294,8648,413,3666,4361,369,7885,-52,3654,5336,-175,4680,-882,4100,3901,40,7395,406,1750,1440,1278,11200,376,2800,5015,-406,7280,240,5041,4256,-392,6020,767,5684,10088,-250,4260,-456,4704,4816,-585,8918,4365,1700,2160,540,8640,-392,3735,4368,-1395,5032,-144,3600,4680,343,6806,480,2077,2442,244,7440,-1352,3675,3608,-360,5293,-99,5551,5115,2028,6600,572,2736,4345,120,7644,-110,6864,5632,-351,5548,165,3360,4368,104,8448,1728,1674,2190,-171,8820,624,4108,4704,-1026,4960,-270,5700,7035,-336,6241,196,3306,4720,333,9500,268,2240,4740,-132,7656,1298,2479,4465,-212,8960,1500,2508,5104,-770,5896,799,4346,7392,-1100,8056,1856,2345,4400,-459,6560,-660,3960,8056,-352,4288,-650,2727,4960,520,8010,1748,748,3648,481,8585,-744,5616,5874,-667,5984,1539,2479,5185,744,11232,528,3451,3344,-1593,8777,4636,3844,3848,-680,30345,21280,-75166,-272349,-161880,136338,79513,-168895,-456195,-26320,2758210,5255712,4926690,4824606,4603158,4178661,3737221,35109,1680040,879744,312255,-57044,-212058,33648,319617,123255,-38024,8352,-675,2730,16335,-624,8415,7095,-2499,2376,-75,8190,9405,-2145,6050,1290,3978,5940,-780,7878,399,5610,10890,-90,4134,-1920,7020,10908,7,5406,-495,318,3021,1632,14445,3348,-65,2438,235,11978,1425,3570,5350,-1457,7475,2898,1269,339,-2325,10780,2600,3572,7360,-1701,2268,3,9858,16478,-676,7068,-256,3024,9576,15,4134,-1391,1469,8649,100,9296,3648,-1005,2145,364,10283,2046,2000,5561,-576,5494,1485,1848,5460,-572,7280,2211,1206,5330,-594,5412,1680,2080,6097,-429,4958,1625,1584,5494,-532,7040,1608,884,4440,-650,6336,2479,1235,5280,-792,5848,1800,1768,5808,-592,5330,2160,2343,5332,-1650,6324,2112,1056,5248,-756,6177,2294,5115,5952,-1536,6864,3008,1365,6264,-666,8091,1664,4368,8528,-470,5135,2304,1404,6525,-650,8554,3772,530,4582,-1216,8034,2475,1850,7520,-184,3604,1276,3268,8446,-825,6290,2640,280,5032,-330,7224,3772,1375,4590,-1485,7840,3330,1035,6216,-184,3850,1566,3465,9968,-720,6693,2812,312,5600,-87,4774,2581,1104,7954,-608,7020,2080,252,4340,-464,5589,3608,992,5580,-1014,8820,2870,976,5589,-616,3782,-248,3627,4515,-8774,51606,111366,-30156,-131699,8840,208320,91676,-179974,939906,3145686,4904658,4864227,5087420,5073600,4639232,943602,226644,491148,122958,186999,349904,181200,-34816,-5610,-28560,-43092,-4374,1743,5168,-5040,2336,645,7420,12141,-1782,1974,2040,4095,12556,1161,4770,4686,1782,8460,180,5070,2236,-900,10620,2508,5022,1080,-162,7020,-208,9300,6136,-2850,4898,-132,1944,1800,760,8370,-260,6825,3634,671,2412,-420,9500,4590,295,5551,-966,5490,2814,1218,6900,-969,4838,1830,1638,7560,0,3596,1449,1881,6806,-270,6708,4284,0,4216,-273,9900,3569,594,6708,-153,4158,3672,637,7500,-473,5610,4134,177,6006,324,3185,3075,759,6630,318,3776,3198,-360,4095,-492,5382,3900,-306,3840,-656,5160,2898,672,5148,-350,3927,3120,848,6364,-276,4928,4488,322,5159,-416,4346,4366,324,7128,340,3542,3685,440,6560,-177,4752,4617,-260,5929,165,4235,4480,192,7304,228,3900,4697,-114,5159,-560,6272,4731,-260,6825,427,2508,3752,510,7840,-399,6760,7462,-413,5676,1344,2856,3760,343,7072,-738,6254,7568,-840,3472,-235,3087,1768,828,11766,3080,2100,2604,340,5670,0,8096,7437,-1715,4740,-42,5440,5760,0,7216,335,4165,5056,77,7600,-2752,9306,32800,4090,-124610,-142400,177562,218405,-89612,-266310,-68000,1100210,2584558,5150875,5239232,5170451,4530616,2162760,110670,593145,442513,215295,70432,-101205,-39132,184920,110019,-43659,6024,4743,-1240,5895,2088,1035,8450,-2079,2544,5151,2360,14017,3712,576,3000,1260,10388,2121,6018,11021,-1216,5184,420,4800,7154,-1554,12444,5562,1710,3078,-581,9840,3431,4292,6100,-3672,4050,608,5810,8979,-2256,5278,200,5440,5400,-912,6230,1168,3264,7462,-184,6480,-240,4674,6052,-656,5440,1558,3036,4293,288,7462,544,2829,5200,-779,5016,-636,7704,9282,-112,4002,-910,3854,6764,540,9202,2550,770,3306,868,9964,2314,3150,5246,-1400,5610,1368,4464,8056,-1144,6090,1037,4032,6834,-1200,6768,684,3520,7395,-425,5832,-201,4550,8366,-342,7600,2720,1425,5832,108,7553,1335,2812,8360,-1088,5073,720,2700,6889,-435,6142,1936,2720,8010,-480,7200,3486,1450,5312,-946,7360,2250,4032,8544,-924,3650,512,3698,8924,-650,6972,1958,1496,5329,-424,9546,4462,1326,4980,-1100,6664,2044,3869,9768,-1288,3621,660,3750,8918,-784,5621,1408,2240,5893,-330,5925,2275,2156,7161,-416,7040,2407,2070,5609,-1350,8316,4836,1222,5544,-1305,7659,2769,3942,8748,-1300,4183,2331,2520,8214,-1248,5840,1458,1625,7832,-555,3920,962,1792,2880,-1116,4030,-11000,10485,106050,27885,-119112,-77652,136276,132184,-184500,389343,3161805,5077215,4696416,4848936,4932312,4600856,2497392,-116970,1030978,333747,125856,281000,237864,-10790,-35532,18690,-77558,-15933,456,6750,-1378,535,2877,979,10519,791,656,5130,260,8132,4521,891,6298,-308,8446,4370,1100,4940,-1584,9639,6392,1892,5562,-2300,6490,3120,2304,7854,-2448,4214,1080,3500,11210,-720,3264,264,3132,11172,-480,5530,1615,1095,6052,-84,7134,3192,1896,7110,-578,7446,4005,1071,6478,-896,8611,4770,1700,7650,-1305,5202,3871,1728,8938,-1219,4450,2700,1508,8364,-1029,4644,2624,1219,6319,-1152,5044,1804,1365,6794,-992,4982,852,2624,10573,-352,5655,3002,2046,9306,-144,6806,4360,912,7482,-608,5940,3465,576,6640,-240,4446,1978,1328,10080,-420,4032,3360,234,5226,-874,9296,6384,612,6468,-966,3354,2814,2090,10080,-684,4233,2387,1518,7998,-210,3905,2880,672,7304,-713,6600,4185,240,5254,-576,4648,3080,1564,10200,-405,3696,2146,1098,7387,-525,6052,4386,468,5852,-928,6283,4094,720,7031,-602,4888,2052,2208,10815,92,3456,1896,910,10152,-378,5727,4200,-98,5616,-696,6760,7128,686,7221,-280,4067,2808,1856,10192,-1056,4998,4611,273,6059,-396,5120,3724,1328,11934,-53,3315,3942,308,5040,-1140,8134,5499,50,6970,-594,2492,2142,1890,8526,-611,3950,3362,638,8366,-816,5922,4089,624,6004,-410,4872,3666,1608,9024,-282,4128,3040,600,8148,-702,7906,3072,546,30530,37160,-107340,-205640,39492,265146,67040,-177905,-406120,960586,4363371,5174920,4951858,4911942,4424640,4076175,1824680,-14476,1392669,663952,194102,-76510,-177408,95910,285505,2282,-13133,10336,-774,3745,12600,-230,12351,4075,-1725,4180,-9,8774,7050,-340,7245,-325,7425,7480,-44,6888,-658,7208,5670,572,7920,-1564,5016,5712,364,5512,-3348,5632,4880,1058,10716,-544,1924,1612,4588,14336,122,3450,3760,552,8288,1147,3256,-224,-206,11025,-320,5037,5824,-1406,3124,100,15450,15876,424,5037,-728,3990,4686,2650,15600,324,4399,3726,602,9870,-66,4982,6448,-102,6059,-648,4601,6298,38,9024,620,2686,2628,708,11449,268,3686,5664,-400,6715,-180,5133,5885,-212,10476,295,3560,3995,250,8004,770,4346,6372,-205,7832,-141,4500,5336,-476,6560,413,3034,4664,135,8190,58,2958,4400,-322,6956,1166,3195,4186,-55,9222,880,3726,5734,-748,6248,-46,5225,7420,-528,6561,793,2618,4488,58,9880,1260,2541,4455,-533,6776,306,5916,7592,-468,6776,1485,3075,4752,-252,10608,1095,2080,5016,-162,6450,486,3822,7800,-570,7520,912,360,5676,-270,8190,1575,1292,5358,-432,4740,-1650,3630,5760,-798,1666,1824,1728,2765,2150,18634,2688,2508,2254,-1120,5568,-420,7998,10626,-1218,5544,92,3395,6612,504,7626,-276,3016,6300,-46,7178,912,3528,4674,156,9256,600,1955,3626,-528,8568,1653,2418,3560,-552,9690,-735,4796,4590,-3509,37944,54040,-147591,-243846,33420,247321,96165,-214291,83844,2734424,5319693,4949646,5095436,5112057,4675756,3503038,-77268,1133440,644133,317018,269866,101385,-41572,114724,85728,-92960,-10360,9042,5900,-2205,2242,-2494,8512,7802,-2120,8580,2300,3087,6136,-1419,5152,376,4717,11310,-1518,6174,624,3102,7728,-208,6408,-348,3960,9898,-156,6110,-588,2678,4896,124,12360,2828,1040,3315,385,10197,2380,1271,6180,-1232,10000,1836,3740,3960,-1505,3813,3960,2288,7500,-1764,8160,1440,3655,8091,528,2912,-1500,5488,16560,936,3740,-1566,-960,4312,800,8960,6762,-1248,1540,1170,15600,2772,2080,4880,-1176,4128,560,6370,9230,-1116,6305,2196,1656,6278,-432,10094,1988,2790,7954,-792,6210,2555,1890,7210,-504,7830,2214,1738,6120,-945,7140,3360,1080,5133,-918,7821,2176,2214,8364,-384,5340,2360,2312,7227,-768,8692,3526,472,5963,-960,6188,2044,1800,8904,-645,5074,2144,1728,6370,-896,7425,3108,1185,6794,-608,6336,2870,2112,6831,-1332,8611,2686,1520,7128,-574,5676,2898,2340,7194,-1292,8320,2349,1274,7052,-546,5005,1584,3116,7696,-1363,10829,3608,1040,6468,-408,7626,2590,4136,11900,-528,7760,4200,1241,8742,385,5456,2000,1140,8924,100,5183,2914,-770,3162,-960,11210,4600,-116,4047,-1333,7980,2193,3984,10266,-600,5916,2964,3569,11514,-860,13861,21576,-6456,-117504,-105300,186003,226543,-41560,-271208,-163184,364764,1810944,4378050,4934682,4869553,4442764,3015768,659974,39324,565920,283222,0,-186706,-34208,233982,163489,-3770,14040,6681,0,9718,1040,5292,9128,-1950,4329,3774,1776,6328,-2080,4872,4480,1620,8436,-1406,4944,2744,2848,12644,960,4320,1824,1881,11433,294,8544,5232,-1008,8000,0,8217,3663,-576,10848,816,5628,3100,0,7470,-363,8928,5650,-1020,4623,-682,8200,4590,759,7347,-400,4620,2415,1914,7800,-408,5106,2291,696,5390,-560,8961,3432,480,4736,-928,10440,4130,848,7725,-704,5220,3200,2016,10200,-413,4505,3675,1136,7569,100,5166,4420,462,8075,0,5680,4263,-120,7872,-468,5610,6840,0,5600,-735,5400,6912,630,7905,72,3984,4480,795,7290,0,6020,6231,-59,7221,896,3551,4617,0,6794,335,4189,4437,-798,5293,57,4959,4661,-250,5325,-561,5016,5293,-45,6264,-708,4650,5775,638,7216,0,3465,3672,792,8370,-77,6264,6806,0,5698,-102,6270,7830,43,8964,249,3321,4810,148,9025,2871,2193,2573,-267,9801,1820,6142,4750,-2343,4743,155,8099,9075,-1372,6557,-150,6461,6696,-265,8008,225,3430,2054,285,2821,-8640,24221,90816,5007,-154910,-58812,220685,67766,-185520,-33818,1643976,3171100,5083261,5311176,5410267,4896640,2710138,42698,786942,298300,137820,309936,202623,-22400,36813,60008,-80028,-14287,1920,7128,-3132,990,-2247,3224,11016,-2730,3552,4158,1728,5742,1926,2976,5780,2160,11433,1078,3888,4466,-1224,10656,1105,5544,5768,-1316,10530,1925,6596,9546,-676,6006,-112,11374,12740,-2225,13386,4300,1560,2418,158,12947,2156,8811,12144,-1900,2310,155,6715,7918,-1254,10296,792,2432,5005,-290,9010,1702,4446,8216,-504,5376,585,4814,8904,-1012,6552,711,4816,6468,-324,6142,336,3696,6384,-495,8514,1078,2592,4884,-172,7224,836,5170,8910,-574,7056,1518,2709,5246,-649,10528,2070,2952,7448,-966,5985,488,5369,10976,-736,5688,380,3906,9310,-312,8463,2450,2048,5056,-215,9486,3038,2535,6138,-1025,5504,704,3096,6426,-1333,5525,132,3813,8256,-176,4896,-567,3913,7565,-114,10974,3648,768,3740,405,8099,1513,5871,14396,-608,3072,165,3510,7476,-935,10403,5246,896,2560,-210,9048,4200,3740,7171,-1419,5488,800,4760,8352,-1250,7208,1775,1749,7056,-760,5712,576,1650,10176,-575,3710,-72,3572,9072,-232,6930,2976,1840,9940,-236,-73132,-185544,64670,238455,67301,-162480,-274770,-233876,806786,3973734,5305170,4964406,4589494,4265100,4183470,1346769,186660,1276776,394914,-196740,-274820,2100,309166,175311,1620,31464,-2822,10440,14820,8,8151,-1032,963,7239,51,6960,-798,776,6042,336,11663,6985,162,4260,364,10670,4664,3402,10791,-2200,5454,2982,2860,5720,-3476,11421,6534,2200,6767,-2142,5995,780,7189,15792,-1188,4565,1072,4437,12971,-255,7007,1456,1656,10043,-48,6090,3927,1156,6853,-832,13064,8833,90,3360,-1650,8024,5162,4544,13206,-2701,2910,1104,2900,10384,-986,6035,2418,2553,8148,-989,6728,1848,1122,8160,-182,4623,840,4214,16240,-504,5940,3744,371,4355,-370,11858,7140,1128,7650,-585,4558,1495,2775,13189,-969,4136,4250,660,6450,-529,7725,6213,1007,7128,-850,3696,2475,1288,9476,-399,4611,2997,969,6804,-462,4592,3036,392,7656,-555,4902,2673,840,6970,-627,4816,2904,1095,8428,-561,5760,3910,874,6450,-759,7154,4214,952,8736,-506,3588,1500,1771,10290,-387,4256,2821,748,7878,-360,7931,5250,459,5928,-868,7140,5858,828,8240,-850,4386,2886,1764,9975,-1044,4002,2960,884,6966,-777,6048,4085,1152,8091,-518,4732,3159,1281,9408,-258,5760,3999,910,9737,156,4209,2646,372,8730,-1161,7020,5992,-204,5727,-1188,5890,4850,2052,11988,-728,5253,4814,2904,6745,-1300,10488,3885,1053,11948,638,4752,1491,2158,20976,-980,9234,10208,-55,5400,-462,8632,10792,1092,9804,2728,-475,-49500,36542,228176,150662,-80496,-176472,-64542,-177460,275220,4014637,5305092,4579276,4406640,4567752,4628286,3775228,-133857,1720904,377208,-116532,83265,387324,382356,68714,-3531,-38448,-25896,8478,-351,12180,5676,-2584,1386,-702,13280,6751,-531,7070,-264,7372,8442,-624,7840,-473,5487,6666,336,6693,-3149,6480,7840,363,5394,-2376,5166,3243,3243,14985,-880,3234,2552,2196,13530,-752,6969,4995,715,11074,836,3843,1540,1600,15251,1530,3250,1469,-1634,8190,-168,10800,10721,-1462,4150,-533,11782,14170,408,7236,-2698,5977,8134,1271,11645,0,3366,2814,2356,15429,1372,2418,4675,0,9603,-420,6262,6549,-630,7566,-55,4018,5141,460,9494,-413,5130,5917,57,7380,1272,3220,3478,434,13224,244,5301,5220,-720,5670,-185,3906,9976,-52,7347,-1914,3000,3969,240,4284,3010,741,2765,2838,11100,588,4176,4080,-1540,5301,-35,8084,6882,-408,8265,1380,3036,3720,64,11092,992,2924,5985,-713,5589,40,5440,7788,-704,8858,693,2728,5184,-30,5950,-330,4312,7004,-495,9152,2048,2160,3360,255,10094,340,4365,7176,-800,6336,960,4029,6386,-245,10864,1104,2100,5544,-500,6399,434,4900,9072,-480,7560,1260,1700,3564,-357,11800,1863,2340,6210,-360,4488,-704,4743,7316,-1196,8502,2415,1296,3168,976,9765,992,4940,8720,-595,6696,960,5551,8295,-368,8170,1200,1292,6231,-640,8645,1580,1909,4988,-540,4332,-737,3232,4465,-4060,72791,94192,-77040,-123291,24277,226038,99499,-185136,984871,3230136,4902740,4888380,5073893,5035500,4585422,1080720,196525,527085,114550,350300,383933,168750,-17328,59250,-26950,-45050,-4350,15500,7181,-4500,1024,-2200,8624,7990,-4176,11400,946,5640,11008,-1320,5320,705,4128,3192,-1100,11280,2408,2880,9120,-315,6880,-1372,4800,13920,-84,6912,-1056,2814,6960,980,5184,2668,225,3960,693,18224,2697,1360,2538,-1081,8250,1760,4473,8432,-992,6392,846,4042,8800,192,6390,1798,2656,7802,-252,5418,-240,-474,6660,-667,7802,3403,826,3150,150,9322,1628,2116,7802,-738,5251,1950,3650,8260,-704,9200,2739,1512,6853,-546,5767,1470,2816,7000,-1056,8820,3234,868,4187,-945,9152,2170,2720,8820,-378,4464,1113,4365,8424,-403,7905,3612,621,3960,-819,10961,3807,728,5766,-1247,7452,2145,3120,8362,-1175,5320,2108,2320,8856,-858,7680,2220,2450,6935,-2142,7920,3772,1496,6912,-900,11662,1606,7434,8217,-414,5576,1584,2850,11662,-418,11092,3735,594,6150,-726,10735,5194,1292,8178,180,4488,1575,2838,9944,-901,6392,4176,-216,4080,-651,7912,3344,1054,5640,-1728,5508,2340,2418,7268,-608,4526,720,3636,10506,-390,7410,4187,1040,5913,-192,9595,4738,690,7885,-477,5785,4455,1008,7695,-138,3657,0,675,356,-17380,58716,127656,-6501,-115010,0,167025,6032,-22752,1377496,2650832,4713225,4758810,5087855,5068652,2385656,31536,750824,53824,-95700,74562,379005,261740,-22148,-3066,-52324,-5184,2992,1224,10065,-3565,1680,609,4635,10368,-2380,3924,4941,1798,9720,-870,4680,3776,3535,12862,1944,4350,2916,1080,10400,-59,11918,8614,-1296,5850,-504,12636,2700,98,14632,2117,2484,1170,1498,13572,378,7840,5332,-2523,4002,-120,9951,6380,-728,5920,-473,8178,4002,632,7533,-495,5148,4440,572,6016,-1196,8374,4536,621,8514,-240,4108,3008,1794,8480,-560,6141,4386,296,5846,-564,6624,5280,520,6408,-612,7326,3404,924,9216,1056,3224,3096,804,9207,-414,7777,5952,-864,4774,-258,5494,5952,585,10100,-186,4536,4851,390,7380,0,6110,7800,144,6384,-315,6500,7560,0,9306,546,3792,4408,255,7800,-168,5472,7722,-455,7979,-58,4131,3666,150,9792,780,6110,7373,62,7533,-94,7050,7752,-450,7050,-876,6138,7905,114,9024,988,3420,4050,852,9999,1020,6042,9024,-442,5700,-324,6674,8989,-504,8692,376,2720,4425,642,9306,2136,3024,4838,-264,7120,649,11877,5841,-1872,9720,1180,4686,4895,-539,6660,-1239,9048,15660,-1240,7100,1100,3871,3300,1722,12528,-3364,12276,50000,20920,-145439,-121055,186714,246024,-59421,-316404,-49000,1822132,4039154,5152541,5164236,5089052,4413546,2975476,66738,1083524,671364,316035,72576,-147444,-32310,219716,126666,-64688,7650,7830,-1280,9438,1635,2950,13020,-728,2525,5858,1920,13728,981,2450,7000,273,8585,1212,4752,7968,-792,13328,6800,1677,3315,-948,12375,3569,7128,9928,-3944,4687,858,4977,8625,-2236,7776,803,5104,8938,-1232,6048,690,4680,8832,-363,6248,-656,5936,9792,-500,10170,2208,2211,4473,416,10070,2550,4100,10396,-1200,6968,1764,2912,5225,-1375,8364,1748,4150,8944,-1008,4648,715,3630,6936,-1045,8798,1376,2700,6889,-377,4422,-68,5335,11024,-656,6975,1162,2871,2546,46,9797,2704,2993,7347,-546,11583,-304,3220,7979,-1794,7592,1264,3003,9945,208,5530,1106,7521,10504,-672,7854,1870,2054,6794,-420,9047,606,4242,10914,-836,7663,2322,1980,5727,-396,12827,5136,2660,7663,-1080,6270,1587,6138,13462,-1296,6580,1817,3320,9215,-598,8370,3180,1944,8084,-1196,9628,4947,1404,5850,-1500,7488,2838,4056,10092,-1887,5076,1690,3750,8632,-1155,7254,1653,2997,8460,-780,7200,2822,1960,7347,-627,7290,1710,2580,10848,-408,3920,711,2574,8550,-456,6966,3051,948,6930,-513,9438,4085,1200,4617,-1539,9164,5742,3933,10648,-1806,5150,1482,3876,9512,-1740,5865,1848,3318,10300,-702,5576,1066,2760,8585,-1071,9559,1200,3537,38458,14040,-182436,-216039,113985,273702,24876,-249031,-248570,1730160,5007075,5092959,5046630,4976400,4409271,3988298,586180,645606,1186750,521439,180640,-101200,-131874,180428,206822,-60853,-2350,11607,-1360,5980,9734,1290,14399,4228,-400,5565,289,11180,5495,1335,8624,-1064,8720,5040,935,6880,-1540,10146,5936,2888,9919,-2448,6985,5360,1672,5928,-4240,11476,5187,3519,13462,-1072,3078,780,8320,20536,-798,6279,3074,1264,9072,120,7072,544,1386,11921,-203,7110,4816,-448,6460,-160,11979,9039,364,7470,-1892,7280,6935,1680,9196,-2691,5824,4897,2728,12480,-2044,4494,3116,2457,10192,-885,5828,3360,1820,11021,-943,6048,3367,975,9494,-420,5525,3502,1656,9504,-1036,7800,4444,864,8925,68,5400,2079,2548,16440,-968,8280,6510,-58,4050,-945,10465,8768,1364,10465,-1116,2726,1728,3060,11040,-640,5394,3640,1152,10152,0,6120,4224,550,6786,-600,6208,4968,0,7740,-528,5115,2496,1050,9894,-506,4224,3182,648,10137,32,1050,3060,781,8976,-1887,7182,6431,-47,135,-900,8165,6324,4488,17955,-531,4559,405,1860,11385,-310,7568,5130,576,10088,-180,6014,5049,250,6966,-684,6080,5512,204,9118,-714,4850,3402,882,7505,-742,4743,4042,966,10282,-462,4851,3318,994,10602,301,5589,4028,847,12672,-210,7029,8094,-217,5670,-1634,10318,8960,270,8514,-568,3131,3640,3096,15678,-70,4536,3870,536,11615,104,7632,6552,66,11004,12015,-55409,-207690,-4356,236910,120008,-131802,-253485,-296637,855118,4419282,5238090,4894650,4521730,4163745,4166055,1670944,122012,1424154,550745,-91980,-238430,37530,348786,243648,-1062,37248,1603,4242,16159,-378,10692,5022,-846,9472,154,7171,6006,-1029,6930,341,8366,8584,-1562,8804,168,4557,7455,-396,6141,-2668,10508,12648,-80,6138,-2343,4644,4071,2576,15392,-1122,1860,2772,2178,16254,590,3920,2392,990,12834,1260,3828,2898,-830,9380,253,8370,9246,-1140,5162,-667,10458,13668,-231,6789,-1139,4180,7209,986,9828,-1326,2331,4307,799,10450,243,2890,3900,715,11544,0,4653,5605,-138,7820,250,5390,5616,0,9603,413,4094,4968,-210,9604,0,3948,5626,-245,7565,-108,4032,5292,0,10152,870,2625,3825,122,11808,918,4264,6480,-645,7275,180,5978,9471,-476,7380,420,3784,6984,-160,9800,1001,2184,5490,-294,7920,936,3480,6300,-572,7566,1037,3318,4860,-624,9309,315,4400,6208,-680,7426,1134,3600,5671,-345,12400,-320,3640,6486,-651,6225,477,6417,7688,380,10010,1104,2852,5312,-324,8184,558,7296,7480,-800,10764,1536,3060,5456,-288,8640,-340,5850,9945,-960,9350,2046,2272,4410,280,14625,1190,4040,10010,-363,5183,-196,5320,9250,-616,9696,1183,1012,4964,140,9025,1332,3828,5376,-715,10580,2312,3430,7885,-522,11919,8344,-22440,-123970,-68986,221970,185007,-60639,-270301,-158387,135048,1736658,4478003,4976205,4772289,4426647,4259707,1424420,-57594,763614,388432,-107653,-310445,-63510,276352,247900,9396,20382,2288,5292,25085,1650,6144,4440,-4482,6536,546,7992,9688,-2750,5424,0,9711,15960,-924,6882,112,5150,10622,0,14274,2310,1958,8277,-62,9991,282,6223,14640,-88,6853,890,3441,9991,-66,12827,3960,312,5775,-260,10434,1854,2156,7676,-726,6084,1500,2522,7144,-846,11074,2356,1870,3900,-800,11058,2888,4277,8475,-837,7990,700,3960,8208,-1254,9464,3450,999,4888,-644,11286,864,3729,7072,-966,2183,1300,4002,8664,-576,14464,1904,1932,4720,-350,8091,2888,3840,9856,-476,8556,1760,1176,7068,-874,7440,2387,1496,6045,-880,9240,3420,1679,6138,-1147,10296,2340,3080,8250,-855,6497,1650,3108,9126,-1080,7469,2775,1482,7120,-700,7896,1794,2790,8051,-629,7566,3440,2100,6392,-1081,11625,4731,1020,6499,-1247,7350,1292,4794,12250,-513,5040,1608,2494,8134,-836,12546,6566,441,4200,-1344,10836,4150,4048,10824,-871,4214,1200,5712,13482,-350,9108,2552,1170,7912,-240,9078,3210,637,8514,-725,8280,2852,880,8188,-360,8736,3096,2200,9292,-651,8624,5060,780,6624,-612,6160,6363,315,-17150,-44990,110045,151317,-35598,-146720,-132111,31410,-129500,1054402,3275955,4861881,4500006,4615392,4810518,4564920,725940,571027,445050,-137454,-6447,229008,495504,135160,-49050,9303,-22770,11160,201,4992,14040,-3286,7100,1260,6435,13320,-2345,5616,5135,3816,11218,-1860,7475,4292,2940,10296,-948,8064,3002,2821,12650,232,6384,264,1404,13216,0,7371,3520,-376,6840,-75,10530,3068,0,6966,-320,9400,5040,1525,5940,-988,12726,4128,730,8600,-168,5002,2706,3382,12222,-480,6497,3612,219,7216,-164,7921,3880,820,7120,-672,6205,3960,332,6052,-1280,9594,5040,1264,5100,-1440,10458,4012,2368,10647,-504,9006,2640,2496,11718,-295,6660,4550,632,11742,264,6630,4650,385,8370,-250,7347,6283,-594,4165,-2250,9702,8463,205,5394,-1952,15444,1372,4095,13608,1365,3485,2378,2944,18876,28,6825,5400,-1125,9095,0,10212,9801,-57,5400,-900,8100,7811,0,10878,81,5244,3240,1602,11556,511,5952,6174,-58,6716,-1260,10680,7062,-469,9579,378,5046,3942,1848,11040,-990,7571,9888,-372,8352,594,4752,4784,1170,11752,1536,5890,5856,-770,6120,-520,8112,7904,-944,8645,-61,6860,4845,810,11648,1900,4189,3458,94,10486,513,6966,6944,-1700,6461,-494,10998,8453,-432,6794,-744,7752,7735,533,9828,1580,2928,6399,-48,-32262,-92905,89995,185304,42520,-127124,-165807,-8244,-155367,2057026,5671880,4873054,4526254,4468096,4579139,4515651,499590,1400208,976752,-148003,-121353,107200,418319,245392,-31850,34224,-18900,10385,5073,1850,11968,-3360,4270,4830,2150,12865,534,3367,5056,1560,10248,-315,4988,7968,-378,10738,2607,3588,4704,216,13224,3072,5670,11092,-2871,8280,1400,5040,4902,-2784,9180,2914,9396,10920,-1225,6860,-86,9570,8670,-1271,8208,-1001,5096,9702,88,8580,-680,4428,7144,770,11960,3762,3432,3978,776,15012,4794,5390,8165,-1748,7566,765,8827,10981,-2958,8393,639,3772,7469,-660,7371,-79,5684,9592,-567,9266,924,3872,6156,54,10094,968,5733,10509,-612,8976,1292,4536,9064,-506,8736,1581,4080,8262,-850,8652,2112,3266,6912,-850,6800,0,5000,10094,-936,6035,360,4100,5525,0,11500,3038,3042,6375,-265,8118,1105,5644,9085,-1333,7020,450,5194,9900,-561,6889,553,3569,6930,-390,11172,3700,2310,5810,-343,8051,1771,5395,9462,-1665,6720,1330,3920,8245,-805,7055,1245,3960,8928,-722,7120,1190,2835,7225,-735,8536,3255,2660,7387,-854,8181,4080,4704,10088,455,2100,1577,5307,8080,-2160,11232,4576,-325,300,-1197,9135,2320,4095,8892,-2420,2650,160,4914,7980,-1392,8463,1064,4950,10070,-608,7254,1520,3696,8091,-476,8460,2280,3078,9114,-680,8778,2175,3910,16074,9288,-83754,-204918,75276,257640,52950,-225170,-321822,-127710,1836384,5281866,5063418,4904200,4458390,4086346,4053828,273240,1214784,1033134,237848,-177940,-208395,102263,413568,115092,8892,23313,-2080,10660,12870,1274,16512,2780,1066,5529,560,11570,3120,2262,9030,-720,8446,3201,2352,8277,-816,8178,3045,3564,10918,-1716,10332,4836,2074,5264,-2262,15642,7314,2756,7749,-3172,7503,728,8034,20224,-552,3233,-819,7686,17343,-143,7313,1536,728,6466,715,16254,8883,1232,3692,-672,10920,6784,3960,11352,-3591,22512,2184,3024,8520,-2624,7776,2816,5016,23718,-1050,5022,1917,3157,10908,-928,8800,3422,1825,8556,-945,8162,3434,1943,9200,-899,6570,1656,3220,11766,-952,6700,2852,2046,6570,-936,11684,5883,1764,9500,-558,5412,876,4836,14986,-795,5481,3040,1206,6806,-576,11625,5782,960,7569,-864,6700,2905,3936,14250,-392,5504,2436,1971,9900,-770,8282,4446,488,7740,-616,7154,4158,1628,10504,-897,5978,3420,1496,9310,-1302,8584,5096,1518,8722,-760,6460,2660,2480,12644,-1078,6534,2848,1540,10165,-420,6800,3270,1738,9999,-1408,9009,5885,795,7055,-1080,8927,4444,3828,11232,-1980,6148,4731,1764,9153,-1584,9570,4416,2412,11252,-855,4557,2187,3024,12100,-368,5695,2910,885,10881,-648,11928,8250,568,15725,8310,-41831,-163917,53424,325180,164175,-143775,-252710,-88917,851509,2460156,5050794,4980750,4651625,4246425,2211554,232404,493611,567188,197403,-174000,-297500,18873,252564,119460,-16440,18088,-348,9760,23800,-63,10608,2640,-3640,6720,108,13664,11220,-350,5780,-432,10829,7440,1998,13440,-330,4750,4080,1674,11781,-1364,7548,6600,325,10355,-1200,7068,6831,726,6426,-3190,9555,8502,1225,8550,-2553,3894,2835,4408,16464,-1794,5635,2850,2738,13570,-810,9120,5488,1449,13340,-456,7696,6325,1044,12960,-784,6678,4988,876,11856,495,5046,3672,1312,13356,-129,7008,4788,-630,10092,-442,9102,6426,177,9504,-378,7560,7308,793,11100,-1581,7198,5841,477,11124,504,5002,3700,2480,14762,-885,5936,6489,-304,7052,-851,8560,7260,795,11872,0,3458,4816,1518,11021,-540,5247,5830,0,8645,-56,2574,5562,594,10890,-1980,6298,5035,54,1911,540,6138,4180,3636,20368,-530,5616,3234,-440,9393,380,7171,5168,860,13312,-792,4708,5959,-430,6248,-408,9288,9216,864,12412,-590,5031,8008,120,6372,-2448,9432,8584,510,12168,637,800,1652,2924,17685,1332,4335,4992,-427,8960,-252,10148,11475,-270,9010,4272,-7930,-67872,12897,273760,192100,-32520,-220056,-170435,-109980,540552,2646751,5319760,4944880,4648192,4573428,4136400,908604,195348,781281,-55032,-317260,-124352,229112,438480,39738,10950,423,2904,25230,2204,6968,5278,-3663,8450,42,7986,5742,-3192,9514,-52,11088,14872,-1890,6600,-924,12012,16188,94,11648,0,4950,8000,1708,17446,1254,5311,10192,0,8580,-1840,10736,7686,-517,15820,5194,1298,2886,1725,31152,-1764,5687,15540,-424,4248,-666,9525,14691,1428,13915,1776,816,5328,792,12319,581,5508,8280,-624,10812,1036,4400,4074,-406,13824,2232,3042,5830,-672,11700,168,6322,9728,-1023,7488,660,4368,8073,-216,12426,1140,3498,6912,-504,9646,1104,5292,7752,-855,13992,2088,3822,7102,-768,10388,544,6783,12672,-725,9009,1072,4944,8586,-272,13090,3072,2075,6732,-608,11227,2187,2856,7150,-1376,9047,1972,3078,6540,-1485,10500,2080,3827,7957,-1131,8667,720,5940,11125,-1088,9523,2190,3276,8025,-612,12744,1068,3842,9844,-480,7392,2175,3978,6608,-936,16950,3404,1360,5896,-1131,7878,784,8970,16650,-1147,9435,1206,4329,11009,-154,10120,1221,3813,9990,-450,10545,3270,1595,1408,-1199,23985,8550,575,1235,-2850,32335,-464,17222,29055,5035,782,351,1520,-75374,35351,357712,330631,112731,-70210,-54891,29840,-21970,2445314,5603400,4830763,4441176,4419100,4557986,3763570,34905,1530578,487575,-259063,-175392,132680,446158,163458,-20406,6104,-21867,20349,4284,3906,11343,-4131,5434,472,5883,10089,-2397,7119,1653,4998,13299,-1770,4982,1239,4747,10509,-870,11172,2418,3180,9682,-336,9292,1395,3330,12882,-78,9328,2060,1664,7912,-480,12099,4746,213,6424,-840,13208,3784,2336,6976,-2310,9443,4380,3024,10922,-1188,7519,1408,5885,14231,-1020,6840,2838,2430,9991,-528,10486,2461,1921,9025,-693,8550,4268,2064,8428,-644,12769,3800,1869,7410,-880,8944,3440,2632,8249,-1360,10591,3822,1600,8216,-1320,11374,3139,2958,10948,-833,8400,3081,2904,11132,-344,8178,3864,1547,9765,-819,8712,3864,672,7802,-1092,10465,4743,1491,7326,-1554,9828,4067,2210,10350,-663,6319,2886,3071,10296,-1421,9350,3330,1196,7476,-741,7968,3960,2494,11000,-888,10764,4368,1501,8448,-720,8342,5400,1896,10764,-416,7979,4664,1152,7469,-1404,8769,5336,568,8989,-848,7416,3773,2132,9546,-2088,9443,6408,1120,9373,-637,9266,5074,2664,13167,-576,6230,3276,1573,12204,0,5550,2574,784,8989,-504,16577,6696,0,6825,-338,10094,5555,1064,13974,558,7371,4095,1053,9167,-1045,8208,4998,-855,5187,-4140,33858,90335,-33459,-232308,-107996,216790,124089,-179308,-254980,1408820,3884766,5082813,5086832,5171012,4776338,4085104,663070,378924,761070,394621,320812,149556,-89954,-12576,142397,-49959,-30705,8684,9452,-2244,5822,546,6026,12627,-4984,6604,5508,2108,12496,-1820,5428,5934,5208,12192,-891,6324,5280,2740,12980,1118,9021,5376,935,11424,600,16714,2090,-1534,14065,1512,6035,6048,-830,10492,-627,15812,14790,-1350,5112,-1566,11039,8170,1683,10318,-2856,6200,6336,1972,13699,190,5049,4543,3164,18104,4224,4080,3193,-230,13266,1534,11300,10512,-3408,5820,-62,12420,10184,-1794,9900,144,7313,6693,138,11232,380,6624,6039,-140,10300,-483,7107,7696,-365,9984,-671,7700,8200,462,10300,-222,7592,8008,770,11550,902,6006,7500,189,10296,462,6580,7980,-616,8281,-375,6300,7821,-336,8648,532,4760,6097,385,11300,869,4816,5980,-504,8330,201,7931,10283,-572,7740,65,7704,7742,-195,10815,1638,4316,5940,-67,11235,553,6760,9240,-828,7055,528,7973,12810,-392,10608,704,4554,7310,-288,12852,5490,5376,8568,-440,8910,688,3348,8748,-3735,12096,-2016,4785,5580,-592,11532,2673,8383,11214,2424,10092,2170,4884,8060,-2277,10100,-4984,9191,10092,-1365,5148,-585,8004,8700,7840,11193,-2175,7371,25194,-5913,-151728,-189921,318500,280809,-51200,-308826,-173774,599841,2226216,5127867,5121025,5024883,4349952,3068652,522936,137863,587190,411075,117052,-156271,-101952,202824,210924,-19781,10005,12950,-780,9585,6240,3132,16492,-786,3132,7400,990,16335,4550,2204,5700,330,10908,800,8778,15972,-1400,7676,2400,4015,6969,-696,18886,8844,2720,7373,-2272,9490,2967,6612,10508,-4221,7684,2190,5964,10920,-2752,9272,1184,5796,11074,-1110,7560,924,6144,11346,-1056,10672,2842,2775,7200,-517,8832,744,6336,9512,-29,10050,560,4183,7544,-336,8928,492,28,14472,-490,10502,1722,3528,7998,-300,2744,1404,6720,11800,-966,9072,2150,4300,8918,-585,10656,2500,3680,10044,-1075,8514,1547,4140,11100,-1050,7280,1767,3526,9207,-833,10304,2500,3654,8008,-779,6970,1209,5145,12768,-1125,9831,2728,2911,5780,-780,12810,3990,4140,11639,-1240,6745,1088,5460,11712,-1610,9936,2163,3680,9500,-592,8918,2112,4278,11664,-882,9292,1900,3589,10290,-1034,10974,4320,4200,12625,-266,8924,2625,4747,13688,-2120,13900,10125,350,4324,-2125,15352,6264,4611,13483,-3078,2675,1175,8160,17784,-2106,8874,2328,3686,12840,-525,8448,1404,3432,7446,-1848,8827,-7800,9492,94160,20316,-189816,-160016,175406,201565,-87945,68704,1684180,3206542,4885605,5094208,5310018,4935020,2045736,-53352,653210,153414,129105,348600,331002,-2228,-43848,25974,-64325,-10125,2508,14850,1846,99,3509,-74,7750,-7375,6028,16236,39,7128,121,-99,6100,5900,19317,13284,-201,6696,-51,12375,6710,9400,15933,-4374,9849,6882,2295,7000,-4070,14194,8249,3834,13230,-3700,5445,1736,5624,16308,-1679,6816,2070,4550,14883,-496,6612,3672,1702,9408,-782,10374,4797,928,7221,-1122,8362,4116,2482,12084,-1521,7134,3320,2343,12769,-840,6716,2756,3432,15990,-680,7597,5989,1300,9384,-624,9504,5850,1275,12305,-795,6695,4692,1656,11448,-765,7650,4370,1215,11948,-1150,8073,5300,1020,8772,-1748,11016,7656,1600,11934,-1200,6540,3526,4048,17952,132,5824,3468,1800,11990,-779,10120,6996,-116,9100,-646,7425,4400,1501,13455,-1219,6554,5100,1330,10098,-720,8532,5733,1840,14125,51,6160,3774,1386,12312,-1372,9280,8375,-44,6776,-1554,10010,7866,1904,12412,-804,4356,3542,3024,14170,-1104,7072,5992,732,10296,-184,5904,2507,1632,14352,-224,5429,3432,300,8528,-713,13566,11316,256,8900,-990,9825,8424,1364,11704,-2214,8064,5700,1950,14803,-162,4004,3344,1998,15120,-855,7085,6441,124,9373,-266,7030,6000,705,10791,1083,-744,-49440,9527,210330,106000,-97008,-203247,-39539,-21792,86400,2833602,5302530,4521960,4322016,4496070,4673926,3499432,-67320,1434498,275425,-196236,-8376,317550,469414,92496,-7854,-30316,-19895,15916,24,13340,8569,-3648,2688,-88,16608,8823,-396,11132,-451,8056,8192,-138,10752,-1275,7458,8712,594,9646,-2048,9246,8848,1600,11074,-1152,6696,7007,1120,10720,-3555,9984,6370,880,14260,1309,2415,1360,4995,26052,390,5335,5520,-1003,8004,136,10545,8350,-504,13095,0,6195,8352,-376,9405,-950,11340,13230,0,10185,-144,5311,8217,684,12555,-1372,4960,6596,78,10057,-664,3780,4557,952,16120,816,3432,3827,592,13020,245,6188,7540,-528,8536,-774,9398,7068,-315,10283,696,3740,3880,1620,19304,456,6615,8475,-504,8330,-480,11160,14288,-240,9555,150,4200,5978,660,13764,658,3000,4732,-130,11600,732,5170,7104,-434,12200,52,7150,7656,-684,11750,2112,5332,7320,-64,13200,-198,6612,11375,-792,7740,60,7040,10320,111,10440,-273,2616,5940,-46,11220,946,3515,4860,183,13843,1518,3680,4590,-737,12540,432,6649,9017,-920,8320,450,6566,9240,-576,13843,-284,4880,9256,-270,9702,490,7200,7620,308,17202,979,2997,7524,-266,9600,-60,8624,10575,-759,15984,2584,2926,4992,59,12992,150,7452,10368,-1904,8932,728,6372,10324,-84,11448,0,7056,11948,-252,9828,178,5040,7950,0,11970,1133,1890,5278,-138,17280,1950,3108,5130,-671,13965,754,7314,14112,0,6552,1350,-2684,-81396,-20501,235638,213738,0,-161226,-52175,-69652,354348,3584521,5210712,4669521,4407894,4532931,4735403,2752837,-68901,1566097,407856,-293317,-60958,298248,505987,113035,-4165,11713,-7482,26167,1218,11832,14272,-3835,5040,918,2752,9168,-2478,11745,1024,6254,13392,-1890,6656,768,6195,12015,-944,12932,-279,4620,11440,-96,8505,-445,7434,12566,126,15312,2310,624,5751,210,14364,2575,3738,7424,-1239,14040,2201,3108,5814,-1825,13617,2752,4425,7155,-2108,9472,561,8614,16371,-1118,6825,-212,9180,14976,-242,10738,1177,2808,8190,96,13095,1521,2420,7098,-286,10800,1620,2424,6984,-559,12980,2028,2522,7300,-2070,12423,2304,4128,8496,-1092,12513,2993,17825,8610,-1504,12000,1872,4032,11610,-574,14260,1820,5593,11875,-598,9312,1800,1330,6440,-1170,15708,4085,1679,5723,-1040,12445,2590,4455,10560,-1548,10001,1003,5148,11790,-1036,11187,3760,3060,14522,-799,12573,4230,2408,10170,-705,8415,2862,4935,13208,-564,8858,3960,1290,8415,-918,13440,4888,924,8240,-1232,10750,5015,2414,10368,-1363,8316,2240,2604,12875,-472,6461,891,3364,10800,-588,8835,2575,856,8918,-308,14036,4200,1932,8740,-575,12519,5390,2044,10285,-966,11040,4876,1771,9126,-1155,7811,3230,2714,12360,-2279,15631,25350,-14742,-149372,-84170,271990,232265,-88021,-280749,-100100,800280,2438812,5141015,5158590,4927175,4319170,2251524,233156,392160,513618,294767,15666,-240350,-82290,187220,149886,-23392,17052,6858,-357,16830,2964,6325,11682,-3604,9222,4104,2907,12393,-2508,7095,3776,4558,16695,-2204,6669,5265,3597,16254,1408,6794,2520,2900,13923,455,12208,5670,-2002,7189,-336,9300,5355,-672,12544,270,14105,2093,1498,12927,-630,12096,8064,-336,20615,-759,12091,10008,1778,14994,-144,4592,4522,3465,10622,-432,15494,4998,216,6970,-476,12600,4888,396,9760,-882,13392,5185,966,10080,-936,7062,5280,1365,10416,-732,7659,5124,1350,10058,66,5785,3780,1044,10878,-366,7350,4982,-76,8188,315,6438,2842,486,7350,-689,5928,4232,-371,3700,-841,5994,1500,871,3666,-1012,3816,1050,2001,4366,-300,3551,517,1694,4104,-630,5313,3009,270,159,-693,6930,2451,1680,2079,-2193,1206,15,5355,5310,-258,3248,-162,3999,5628,45,2380,-1298,540,3480,-6,1581,-756,-621,616,1408,7830,1680,-39,221,414,5244,462,3712,3915,336,117,-91,184,-13680,-14595,81258,97695,26832,-6771,15729,6708,-87660,793690,2272422,4643769,4912492,5096306,5219781,2969967,344796,462510,293582,-188232,-105456,133222,297344,141680,-6372,-9720,-17014,10208,1872,2301,3072,-3360,648,-744,3290,3480,-1443,2847,960,1974,1728,-1364,2555,990,2109,3285,-640,2444,-120,3740,5402,165,2394,-225,1200,3276,75,5355,1628,-320,2394,35,2475,126,1215,4536,176,1664,-342,532,1353,-30,4131,432,-616,884,144,4256,123,1020,1887,-144,5082,578,1200,1344,-87,4420,555,1440,1188,-459,2900,624,899,1560,-540,4260,162,1512,1740,-702,1674,840,1080,1278,-387,4032,450,1944,3240,140,870,36,3096,4032,-120,3384,840,-244,1044,-48,3672,1400,272,1269,-448,4453,792,-384,1683,250,1564,1026,1696,3066,-352,256,1023,-80,920,-950,3922,1260,608,-512,-713,456,720,950,2590,-210,2014,704,1794,3363,792,380,0,308,3127,0,4524,472,-1408,350,0,2200,2301,0,1972,-280,4864,875,987,2050,-234,1575,1190,2100,5244,-850,5969,10701,-4170,-66780,-77035,135120,155871,-71706,-250825,-250038,592835,2960580,5187757,4990432,4911066,4538568,4228475,1235820,75917,951615,287554,-90856,-234792,-55952,143447,119970,-4183,6201,-122,2542,9396,1040,1809,1953,-1598,897,-57,434,-348,-2160,2295,1386,1598,3657,342,154,20,4320,6715,1254,2350,1855,-282,1034,10,2480,1106,-1539,3400,735,799,-235,134,1271,-224,5265,3060,-378,51,300,5963,2296,448,1495,-630,558,-33,5880,6675,1288,784,253,742,1364,242,6272,2025,-874,1456,-814,1431,440,1254,2752,-324,1406,1560,8732,891,-240,3192,1505,384,1036,-690,5900,1089,1104,2688,-105,992,644,1196,2000,-231,1932,2112,93,1085,-138,2132,1080,266,1428,-88,1240,1120,186,1189,-594,1634,1054,82,1920,-96,1178,696,1144,1806,-372,2050,1920,84,1558,-336,2600,1554,372,1750,-760,1428,1804,644,2400,-74,806,175,1235,3060,176,2484,2256,44,598,-200,4485,3300,-120,1782,-987,1122,874,2120,4002,55,1620,1254,840,2244,-152,2703,2378,-67,3186,418,840,484,252,3468,0,3752,1711,-506,1050,0,2835,2720,0,2744,29,1748,1850,0,1305,-1080,2491,1078,-57,-38,-4403,13025,37120,-58887,-115911,-48818,128649,-2156,-228956,-53142,2547200,5535378,4988547,4986093,5107591,4756136,4065412,70788,1287530,748710,198447,132573,138043,24266,46486,66624,-60171,-16225,1827,1121,-1830,-1595,-1672,1728,1488,-715,1155,703,1020,17255,-380,1098,720,494,3025,-259,1768,5831,230,3660,225,1824,1870,469,4420,2058,460,0,-400,3600,714,2010,2295,-1722,360,0,5840,4650,-63,150,-1161,3444,2556,621,2847,-434,129,165,2193,5208,994,972,468,469,3096,462,1785,1302,-728,2196,-96,2881,1800,-770,1995,-42,1976,2501,280,2064,-325,2750,2166,80,1938,-205,1085,1104,728,2650,-456,2080,2652,125,961,-690,3696,2862,372,2080,-104,850,992,1410,4158,378,961,1000,82,1666,-32,2162,3150,-210,1178,-450,2214,2499,31,2254,-100,1110,950,918,3078,204,1333,2499,40,1147,-575,3213,3534,-124,2107,357,600,868,1012,3906,930,1209,2254,-196,1500,-224,3696,2356,-585,2184,506,1036,2550,216,7224,-304,1833,3192,-198,1369,-306,891,3784,288,2303,684,594,1332,204,1617,-44,1548,1862,-384,1716,396,1020,1666,36,1763,-418,1568,2548,-341,1500,68,1080,1148,473,2940,441,1395,2200,-50,1440,84,1720,2880,-198,2250,176,850,2208,-54,1400,-816,1166,3100,-128,1700,184,666,1645,459,2544,558,1312,1950,-200,2479,1269,108,240,-531,2624,-39,3000,3551,-675,188,-50,3009,3776,20,2520,-318,1350,2914,270,2550,118,360,-168,420,2322,-4712,14067,63600,4296,-38790,8748,154770,92278,-134064,19277,2386272,5189568,4790565,4855140,4950429,4669696,3409812,-19425,1035552,490448,137826,148740,167925,19584,40593,36750,-60168,-15022,-124,1407,-2475,-630,-1743,-210,3815,-1110,-106,525,528,2170,-1079,-153,2030,615,3074,-925,432,713,689,3417,696,1927,2262,2516,2025,644,1007,603,-792,4277,1092,2788,3450,-532,798,-90,3696,5278,-952,2747,0,931,2520,130,2072,-1102,2210,5092,0,3038,1200,273,1036,950,5005,2356,840,2232,-640,1260,252,1700,3234,-775,1680,144,1152,3240,-234,1870,84,950,2632,-120,2160,702,1014,2695,-50,2090,376,750,1380,-637,2418,-147,1150,3300,-48,675,-736,3430,3596,81,2484,600,168,837,1120,4340,464,1134,2592,-180,1260,-372,1925,3782,-160,2352,576,576,2160,180,2640,366,940,3472,-144,1312,720,465,1920,-156,2632,1240,348,1148,-450,2108,800,728,1736,-480,1392,-252,1650,4216,-320,1484,62,312,2064,234,3465,3720,528,2597,-38,364,301,1014,3402,2220,1287,-245,1121,2072,-7,1560,-162,-1628,2223,80,2714,666,36,1560,177,4136,1767,384,874,-414,2700,1248,2124,3948,-1240,1824,304,1656,3450,-608,1656,-336,2200,4788,-288,2160,506,950,3312,80,3905,819,1422,9540,3729,-44200,-122400,21990,159040,28041,-160607,-261873,-97293,1317160,3403400,4927959,4858560,4646178,4375016,3089772,204631,843340,546546,67230,-167013,-135702,122664,234500,70587,-3962,3822,-1440,8701,7119,-513,3250,-1980,-413,910,1248,7684,2373,-378,1352,560,3599,845,1456,4488,-441,2394,884,924,2501,-715,5264,3828,21,741,-867,2871,1394,2145,4230,-1334,60,104,2040,5133,-306,1872,180,1104,3360,-72,2000,708,225,1584,-132,3456,616,216,1700,-420,1275,198,1155,2952,-374,1728,374,1505,1683,-174,1960,-574,2006,5040,-55,1591,-198,1566,3528,126,3068,1120,180,1665,72,3078,1008,288,2756,-48,2016,900,204,1710,-368,2176,954,108,2856,-160,782,30,828,2584,-558,2664,714,264,2530,-7,1548,-114,1457,4662,-154,1452,275,287,2451,27,2538,1512,242,1540,-95,2091,684,450,3618,-96,1034,455,418,1122,-456,4100,1876,152,2538,-39,858,-264,2660,6478,0,1862,702,108,2028,300,4830,2449,0,2303,-208,2376,1872,550,2415,-589,1728,1363,336,2970,72,814,245,608,2944,-348,1029,855,-32,1147,-161,1760,920,300,2058,-228,832,124,874,2695,-240,1150,-42,672,4004,52,1216,1666,840,3174,2,3024,2002,-156,544,782,5880,2346,58,3024,182,396,-272,-805,5040,-816,2349,1792,-63,825,448,2590,1740,1200,5751,-320,468,575,588,3330,-667,3300,1491,330,2704,230,714,450,552,2574,-21,-165,-20384,-12040,74188,21400,-51336,-83538,2123,-10295,-199920,2312884,5570646,4802160,4648047,4742388,4721552,4418614,497250,1254413,837384,92004,60844,199260,229072,60088,3900,-37874,-28864,-3485,-112,3420,-927,-2016,-392,-1914,968,-1785,-276,3382,-81,4536,4116,-330,198,1008,6555,5251,-117,3339,-252,600,396,1776,4560,-1475,1027,2491,12,1080,-880,3182,1248,925,4819,-47,86,108,2200,6622,156,1591,549,49,3225,144,770,308,-306,3010,-99,3577,3150,48,0,-124,4488,4130,99,2847,-966,-130,0,1116,4488,236,414,1443,920,3185,-252,2628,1275,-96,1840,1221,2000,245,861,4818,-50,1248,280,-825,2800,45,1722,1518,66,2652,-91,1700,1680,-171,1638,23,1650,1275,520,3672,-150,1178,741,-27,2200,75,2080,972,150,3038,-361,1782,924,-81,2600,180,1020,196,1083,4884,63,1242,1150,-170,1326,-48,3876,2960,-99,2346,161,884,1053,372,3740,520,1716,1020,-203,3016,81,1550,935,-377,2236,-180,1914,1914,-69,2000,-119,1914,989,270,3696,231,1081,600,224,3696,23,1560,1568,-112,1739,-195,2080,1680,-23,1924,-84,784,555,468,3185,30,1127,185,111,3332,120,1404,294,-42,2842,-75,2368,3468,-32,1053,-78,2814,2320,525,3264,306,184,405,611,3953,720,1785,1887,-222,3266,135,3008,2065,-252,1683,296,2516,2769,-270,3456,210,924,495,-384,4624,273,1740,1188,-264,5478,225,2304,1020,-273,3364,-154,3520,6889,285,1056,615,-16224,-73022,15092,175600,182600,40774,-46420,-82738,-146432,2674116,5506424,4921190,4752000,4650382,4673650,4397222,299552,1728936,906670,53808,-142560,30338,250295,250585,21275,26862,-11360,-2160,6930,-672,1582,-1725,-1875,3531,-960,3420,2100,-1488,854,-60,4800,4494,-930,2090,-240,2511,3172,-72,2688,-546,2294,2695,204,2754,-1872,1854,2016,208,2738,-686,1139,714,1944,8961,1200,624,444,476,5628,294,2538,1653,-925,2613,132,986,2772,-364,2491,-190,2701,3350,-77,870,-693,2236,2226,190,2263,-850,518,1050,861,6278,420,1083,496,697,5328,245,2583,2628,-220,2736,32,2624,2160,-217,4284,972,902,528,-58,3776,-300,2232,2856,-270,1558,88,1247,944,530,5256,-168,710,1330,-120,1462,-48,3445,2482,168,5254,700,600
