1109,1099,1104,1133,1155,1166,1158,1136,1122,1123,1127,1342,2407,990,1187,1181,1211,1255,1296,1306,1387,1392,1392,1374,1311,1239,1223,1150,1083,1103,1072,1103,1107,1088,1095,1104,1074,1083,1108,1104,1163,1108,1145,1153,1119,1168,1136,1136,1176,1199,1174,1136,1104,1088,1095,1535,2242,698,1135,1086,1115,1143,1178,1222,1265,1301,1334,1258,1207,1136,1104,1054,1029,1045,1022,1050,1056,1072,1055,1072,1063,1059,1053,1050,1066,1053,1072,1074,1070,1072,1067,1088,1104,1090,1126,1107,1079,1072,1088,1092,1591,2361,752,1163,1120,1162,1200,1241,1247,1307,1344,1363,1318,1271,1215,1167,1139,1105,1087,1104,1115,1101,1093,1106,1119,1102,1095,1086,1089,1094,1088,1091,1092,1122,1136,1115,1134,1129,1137,1167,1200,1187,1155,1153,1150,1152,1453,2416,880,1201,1166,1200,1206,1267,1276,1343,1372,1385,1360,1301,1250,1206,1138,1111,1114,1136,1124,1121,1134,1128,1146,1117,1117,1105,1117,1117,1132,1127,1137,1145,1136,1161,1146,1205,1200,1178,1149,1177,1153,1231,2584,1280,1140,1217,1260,1273,1282,1319,1397,1430,1461,1455,1379,1297,1236,1207,1173,1149,1152,1155,1169,1168,1168,1161,1150,1121,1128,1136,1139,1146,1136,1153,1153,1157,1164,1159,1206,1195,1185,1178,1170,1146,1154,1203,2615,1408,1147,1185,1234,1249,1274,1317,1346,1395,1424,1407,1357,1285,1199,1178,1155,1153,1143,1168,1158,1143,1166,1165,1151,1136,1143,1135,1140,1133,1163,1153,1139,1140,1157,1178,1191,1213,1212,1159,1169,1179,1193,1542,2467,871,1264,1232,1239,1277,1293,1337,1354,1392,1438,1408,1344,1279,1223,1193,1151,1151,1164,1163,1163,1151,1146,1152,1152,1143,1114,1138,1126,1131,1123,1151,1145,1152,1153,1147,1175,1179,1200,1214,1189,1163,1168,1198,1600,2320,851,1254,1230,1267,1300,1301,1354,1394,1456,1488,1447,1403,1322,1255,1207,1178,1149,1178,1170,1198,1183,1198,1191,1193,1186,1174,1189,1191,1199,1200,1196,1187,1227,1245,1264,1264,1255,1225,1235,1211,1261,2704,1515,1163,1256,1296,1314,1353,1362,1409,1453,1473,1485,1431,1374,1280,1205,1193,1168,1175,1180,1183,1182,1200,1211,1196,1196,1191,1168,1168,1195,1187,1182,1168,1181,1216,1203,1200,1216,1248,1259,1245,1216,1177,1218,1219,1334,2639,1288,1259,1259,1267,1297,1323,1360,1407,1447,1450,1455,1387,1340,1257,1213,1181,1170,1155,1161,1166,1167,1186,1169,1171,1175,1171,1163,1170,1186,1173,1175,1175,1179,1200,1213,1199,1200,1218,1250,1242,1294,1251,1218,1182,1207,1201,1712,2431,885,1259,1270,1293,1326,1324,1360,1392,1449,1459,1434,1387,1301,1257,1223,1185,1165,1186,1189,1177,1183,1195,1190,1166,1150,1178,1167,1161,1175,1171,1168,1188,1168,1202,1219,1227,1255,1240,1243,1241,1236,1231,1435,2588,1081,1266,1270,1314,1344,1349,1424,1455,1506,1518,1520,1447,1375,1283,1246,1191,1200,1200,1200,1226,1216,1221,1232,1202,1221,1200,1198,1200,1185,1201,1201,1192,1197,1217,1246,1259,1257,1261,1266,1232,1236,1212,1220,2544,1890,1070,1275,1308,1344,1344,1379,1402,1475,1517,1492,1437,1397,1344,1219,1207,1182,1183,1205,1185,1211,1211,1216,1210,1202,1214,1198,1189,1194,1214,1229,1216,1207,1198,1200,1227,1225,1255,1232,1236,1200,1219,1232,1270,2656,1451,1179,1241,1326,1319,1365,1388,1428,1446,1531,1518,1472,1374,1310,1264,1203,1187,1194,1203,1218,1187,1197,1218,1188,1203,1177,1192,1193,1183,1187,1200,1216,1216,1266,1247,1218,1226,1222,1195,1680,2373,826,1297,1274,1317,1344,1378,1437,1475,1520,1549,1504,1424,1360,1292,1255,1207,1193,1200,1178,1207,1210,1219,1209,1200,1163,1170,1200,1194,1191,1214,1203,1206,1207,1226,1200,1259,1243,1280,1259,1227,1216,1209,1217,1923,2343,882,1297,1315,1327,1343,1369,1396,1445,1489,1499,1463,1407,1348,1282,1234,1210,1211,1216,1213,1200,1226,1219,1194,1199,1186,1191,1183,1200,1189,1215,1200,1214,1223,1201,1232,1249,1246,1264,1255,1239,1203,1229,1207,1719,2413,870,1280,1280,1291,1328,1359,1387,1422,1464,1488,1446,1415,1339,1290,1230,1200,1198,1200,1213,1195,1197,1211,1219,1215,1204,1185,1186,1174,1172,1200,1201,1198,1221,1231,1240,1227,1216,1184,1191,1211,1923,2218,845,1294,1281,1322,1344,1362,1383,1436,1487,1509,1458,1392,1321,1234,1191,1185,1184,1168,1174,1186,1190,1203,1174,1152,1138,1162,1157,1152,1170,1158,1182,1168,1181,1187,1176,1221,1237,1232,1214,1212,1189,1204,1235,2491,1841,1050,1244,1259,1270,1298,1328,1370,1408,1450,1435,1392,1338,1301,1235,1201,1178,1167,1161,1185,1159,1169,1184,1177,1175,1168,1168,1172,1152,1174,1165,1172,1188,1204,1225,1232,1200,1200,1194,1219,1194,2402,1621,983,1243,1275,1279,1328,1374,1408,1452,1503,1483,1449,1360,1310,1235,1206,1174,1174,1197,1197,1187,1200,1211,1214,1210,1182,1200,1200,1205,1203,1246,1260,1267,1234,1207,1186,1219,1248,2608,1551,1126,1243,1281,1303,1316,1351,1405,1437,1474,1459,1406,1335,1287,1217,1198,1174,1159,1185,1200,1182,1175,1194,1168,1168,1178,1173,1146,1157,1197,1175,1163,1183,1202,1205,1232,1200,1201,1181,1169,1189,1302,2616,1217,1246,1229,1254,1278,1309,1335,1369,1392,1412,1393,1339,1319,1234,1216,1143,1134,1177,1181,1157,1156,1149,1157,1155,1136,1130,1141,1139,1141,1150,1159,1168,1168,1207,1226,1222,1203,1185,1177,1174,1233,2495,1351,1082,1195,1231,1257,1296,1310,1354,1371,1409,1439,1379,1328,1245,1194,1143,1130,1150,1136,1149,1150,1148,1151,1143,1137,1117,1117,1133,1161,1133,1186,1186,1197,1191,1178,1162,1177,1351,2474,1073,1219,1214,1226,1258,1295,1328,1382,1411,1434,1409,1363,1296,1234,1168,1138,1141,1127,1153,1140,1168,1137,1167,1167,1153,1143,1126,1129,1134,1150,1138,1155,1182,1203,1201,1193,1169,1150,1164,1167,2143,1993,902,1186,1215,1233,1269,1274,1283,1342,1373,1367,1306,1273,1232,1149,1140,1130,1123,1121,1133,1130,1136,1131,1105,1098,1086,1115,1121,1104,1113,1118,1130,1142,1171,1181,1185,1171,1150,1146,1151,1146,2393,1514,992,1167,1217,1234,1254,1307,1331,1367,1395,1404,1360,1285,1232,1171,1133,1133,1147,1128,1134,1164,1139,1141,1133,1134,1118,1147,1123,1138,1139,1168,1142,1162,1179,1189,1194,1141,1150,1154,1154,1472,2327,912,1215,1175,1232,1233,1261,1297,1329,1391,1392,1376,1293,1223,1179,1136,1099,1109,1104,1110,1127,1136,1111,1126,1130,1097,1095,1103,1136,1111,1102,1123,1128,1151,1147,1143,1165,1181,1183,1142,1134,1148,1131,1264,2475,1200,1213,1183,1195,1218,1241,1244,1284,1309,1324,1315,1253,1239,1187,1152,1121,1112,1105,1104,1095,1111,1103,1106,1118,1118,1091,1094,1101,1089,1101,1110,1107,1114,1121,1141,1159,1119,1104,1138,1124,1247,2397,1079,1135,1157,1168,1232,1245,1273,1311,1335,1370,1358,1301,1223,1175,1134,1134,1107,1109,1110,1125,1115,1117,1105,1107,1087,1090,1091,1087,1087,1085,1087,1094,1120,1143,1151,1142,1095,1109,1111,1128,2430,1469,1037,1136,1177,1186,1227,1245,1286,1303,1330,1306,1272,1211,1168,1137,1086,1090,1095,1098,1088,1089,1101,1076,1076,1072,1042,1066,1058,1066,1075,1057,1105,1095,1089,1113,1136,1121,1141,1120,1125,1127,1143,1911,2071,828,1149,1159,1183,1184,1225,1248,1293,1306,1312,1287,1217,1169,1114,1090,1082,1090,1077,1097,1088,1083,1073,1082,1073,1073,1046,1052,1088,1083,1063,1081,1077,1088,1070,1086,1108,1133,1136,1090,1100,1089,1105,1276,2289,921,1190,1139,1190,1187,1217,1238,1263,1295,1313,1307,1264,1216,1157,1134,1099,1119,1088,1104,1098,1109,1107,1077,1101,1082,1072,1083,1075,1088,1099,1072,1104,1103,1132,1127,1108,1090,1104,1107,1123,2365,1357,976,1106,1165,1222,1229,1238,1283,1328,1345,1344,1261,1219,1190,1136,1124,1078,1105,1101,1095,1088,1096,1084,1078,1055,1082,1072,1087,1083,1093,1072,1092,1095,1119,1127,1148,1137,1077,1088,1093,1087,1702,2131,794,1136,1143,1169,1165,1183,1218,1279,1280,1312,1262,1221,1184,1143,1077,1088,1072,1097,1085,1113,1079,1062,1071,1086,1071,1068,1075,1074,1062,1047,1097,1087,1081,1114,1115,1136,1100,1072,1071,1076,1146,2417,1254,1131,1121,1146,1166,1197,1231,1271,1298,1337,1299,1233,1193,1167,1134,1088,1055,1083,1082,1083,1097,1088,1075,1082,1069,1050,1069,1067,1058,1057,1053,1059,1072,1106,1104,1118,1108,1088,1066,1082,1072,1213,2320,1007,1137,1102,1158,1178,1208,1232,1265,1312,1315,1285,1258,1194,1146,1111,1035,1054,1051,1060,1054,1043,1087,1076,1071,1063,1057,1081,1065,1063,1104,1091,1110,1120,1068,1082,1069,1077,1337,2215,779,1139,1136,1179,1189,1207,1259,1298,1327,1352,1327,1229,1218,1149,1101,1091,1047,1078,1082,1083,1097,1088,1074,1066,1061,1080,1056,1079,1039,1088,1092,1098,1111,1131,1139,1103,1105,1092,1104,1642,2147,763,1167,1136,1169,1190,1226,1235,1275,1291,1328,1287,1227,1183,1126,1098,1072,1050,1063,1056,1037,1075,1040,1063,1072,1042,1047,1057,1072,1072,1051,1074,1089,1071,1066,1068,1129,1122,1125,1137,1104,1081,1061,1102,1862,2000,826,1106,1149,1159,1168,1189,1227,1255,1281,1267,1259,1197,1176,1107,1075,1082,1045,1067,1069,1057,1055,1063,1063,1072,1040,1059,1023,1051,1049,1057,1072,1083,1073,1064,1045,1117,1083,1131,1088,1085,1055,1090,1081,1823,1822,813,1108,1137,1168,1189,1234,1240,1281,1318,1327,1318,1238,1170,1138,1074,1040,1063,1072,1038,1088,1072,1084,1072,1070,1042,1049,1077,1071,1045,1041,1050,1059,1093,1082,1090,1113,1128,1123,1100,1084,1091,1104,1289,2274,989,1163,1123,1138,1164,1168,1234,1259,1289,1325,1309,1263,1186,1138,1106,1082,1046,1063,1067,1054,1069,1041,1074,1072,1074,1063,1053,1035,1074,1075,1083,1056,1075,1085,1072,1072,1104,1101,1094,1120,1110,1090,1088,1098,1104,1426,2266,850,1180,1152,1154,1191,1201,1251,1280,1283,1286,1280,1239,1207,1146,1109,1062,1063,1073,1058,1072,1073,1071,1062,1061,1054,1072,1055,1014,1059,1055,1073,1055,1065,1043,1073,1080,1069,1085,1089,1125,1117,1108,1114,1103,1088,1228,2265,1041,1114,1164,1189,1216,1255,1238,1277,1322,1360,1371,1313,1258,1177,1122,1042,1055,1081,1082,1101,1104,1101,1072,1075,1086,1079,1043,1045,1062,1087,1072,1078,1078,1072,1131,1138,1121,1133,1107,1099,1117,1119,2143,1770,880,1121,1155,1169,1203,1219,1262,1278,1328,1330,1278,1248,1155,1109,1077,1070,1022,1058,1072,1074,1073,1066,1050,1091,1064,1034,1051,1058,1043,1054,1062,1072,1088,1088,1073,1088,1117,1126,1119,1127,1106,1085,1089,1088,1374,2319,960,1140,1132,1156,1162,1161,1222,1239,1258,1282,1291,1246,1174,1136,1087,1049,1072,1060,1014,1071,1046,1050,1072,1045,1055,1021,1031,1040,1043,1055,1039,1040,1073,1072,1081,1090,1107,1093,1072,1088,1088,1081,2291,1427,960,1130,1142,1194,1197,1233,1270,1291,1331,1349,1301,1243,1192,1150,1086,1088,1085,1079,1088,1088,1099,1092,1086,1091,1044,1078,1091,1087,1088,1075,1083,1121,1071,1121,1120,1136,1099,1083,1088,1074,1171,2416,1337,1072,1111,1171,1185,1193,1216,1259,1281,1298,1318,1285,1215,1159,1115,1104,1075,1074,1046,1053,1078,1085,1072,1057,1063,1073,1040,1070,1045,1047,1072,1090,1101,1117,1117,1079,1055,1095,1075,1328,2292,898,1159,1136,1131,1154,1200,1227,1264,1294,1311,1318,1271,1169,1137,1109,1062,1062,1044,1078,1055,1043,1051,1079,1067,1070,1072,1084,1085,1084,1104,1123,1127,1072,1105,1077,1089,1107,1246,2281,922,1121,1139,1148,1197,1220,1242,1283,1328,1345,1323,1260,1197,1121,1104,1075,1083,1083,1094,1090,1100,1090,1104,1093,1068,1068,1072,1076,1072,1079,1088,1091,1079,1099,1128,1127,1131,1109,1111,1106,1095,1425,2236,829,1161,1130,1142,1175,1216,1231,1251,1293,1317,1285,1246,1190,1170,1121,1079,1088,1090,1098,1095,1083,1089,1079,1079,1063,1071,1072,1078,1067,1073,1072,1072,1097,1071,1109,1104,1088,1120,1104,1108,1136,1121,1104,1131,1130,2269,1695,958,1146,1149,1168,1194,1182,1238,1280,1297,1301,1255,1218,1169,1134,1117,1107,1101,1086,1090,1089,1067,1081,1101,1072,1039,1083,1077,1060,1072,1066,1088,1072,1071,1071,1113,1111,1117,1104,1088,1072,1078,1098,2119,1578,925,1145,1136,1196,1222,1254,1270,1296,1328,1346,1294,1239,1182,1104,1079,1072,1072,1071,1088,1069,1094,1093,1073,1058,1072,1078,1050,1078,1055,1074,1068,1088,1087,1099,1092,1119,1128,1142,1139,1106,1104,1124,1142,2411,1347,1074,1121,1130,1175,1174,1221,1239,1280,1299,1302,1258,1188,1163,1129,1076,1052,1057,1069,1066,1086,1047,1091,1095,1079,1061,1069,1075,1058,1074,1070,1071,1083,1083,1095,1095,1093,1109,1114,1125,1131,1088,1095,1099,1088,1834,1977,821,1126,1119,1153,1170,1189,1218,1294,1301,1313,1284,1232,1206,1136,1071,1067,1054,1074,1083,1077,1068,1078,1071,1070,1047,1062,1040,1068,1072,1059,1063,1070,1069,1065,1087,1069,1117,1115,1131,1141,1088,1104,1070,1094,1873,1895,833,1167,1161,1180,1200,1228,1263,1296,1338,1356,1328,1255,1190,1136,1094,1075,1040,1072,1063,1083,1073,1101,1069,1074,1073,1040,1055,1072,1055,1070,1060,1088,1094,1127,1093,1143,1133,1094,1079,1085,1079,1591,2067,784,1142,1150,1168,1211,1218,1248,1283,1328,1336,1328,1264,1201,1143,1091,1070,1071,1071,1072,1072,1070,1046,1077,1085,1066,1071,1069,1075,1072,1077,1045,1065,1068,1099,1109,1106,1099,1136,1147,1159,1133,1141,1122,1121,1124,2064,1862,880,1130,1169,1187,1216,1232,1263,1308,1343,1350,1299,1281,1201,1152,1120,1105,1106,1091,1088,1073,1102,1070,1093,1094,1088,1070,1083,1087,1087,1104,1099,1089,1106,1092,1072,1118,1118,1106,1133,1131,1159,1143,1118,1106,1113,1133,1191,2445,1353,1110,1152,1168,1189,1232,1258,1280,1312,1360,1329,1310,1249,1217,1138,1115,1102,1088,1091,1108,1103,1105,1122,1090,1125,1106,1110,1103,1104,1088,1104,1101,1095,1120,1120,1107,1118,1138,1135,1178,1151,1151,1123,1139,1136,1154,2361,1529,1000,1191,1185,1213,1252,1241,1277,1331,1360,1392,1326,1281,1226,1167,1115,1101,1094,1103,1104,1095,1134,1101,1094,1097,1088,1072,1072,1077,1072,1102,1082,1106,1099,1118,1111,1119,1142,1123,1119,1146,1168,1158,1119,1129,1127,1129,1326,2385,1091,1200,1183,1217,1217,1227,1294,1307,1355,1360,1378,1334,1278,1221,1156,1132,1082,1105,1101,1112,1117,1115,1109,1099,1092,1103,1104,1089,1103,1099,1095,1104,1100,1108,1117,1136,1126,1162,1141,1135,1165,1174,1178,1159,1146,1162,1163,1185,2482,1550,1098,1169,1185,1206,1235,1259,1310,1326,1370,1360,1343,1281,1224,1167,1163,1103,1114,1133,1110,1110,1109,1125,1105,1119,1102,1104,1093,1104,1111,1131,1132,1129,1138,1138,1115,1133,1149,1122,1147,1152,1138,1166,1131,1155,1149,1200,2442,1324,1102,1197,1219,1253,1286,1294,1358,1362,1394,1427,1388,1321,1223,1150,1133,1098,1104,1129,1136,1098,1097,1111,1107,1093,1095,1098,1097,1069,1095,1091,1114,1100,1095,1133,1133,1110,1151,1174,1191,1168,1136,1152,1146,1142,1313,2461,1136,1211,1186,1207,1227,1251,1264,1303,1337,1387,1385,1334,1261,1226,1174,1166,1091,1099,1104,1125,1118,1114,1127,1127,1105,1121,1123,1115,1118,1129,1126,1136,1136,1136,1127,1141,1111,1165,1168,1168,1167,1168,1147,1150,1196,2519,1515,1123,1200,1229,1243,1261,1306,1331,1371,1393,1399,1372,1342,1271,1205,1120,1113,1083,1086,1125,1104,1125,1121,1122,1118,1104,1098,1076,1097,1123,1110,1152,1139,1143,1143,1105,1107,1129,1125,1814,1952,768,1177,1196,1219,1235,1282,1304,1341,1396,1413,1409,1334,1251,1200,1149,1101,1117,1115,1135,1135,1132,1140,1120,1134,1083,1114,1104,1104,1113,1108,1099,1120,1137,1192,1155,1142,1147,1125,1153,1184,2475,1486,1073,1171,1219,1227,1264,1287,1303,1360,1381,1403,1364,1306,1249,1200,1139,1143,1137,1153,1151,1152,1142,1151,1146,1138,1121,1120,1125,1123,1127,1121,1151,1157,1158,1166,1155,1155,1136,1139,1147,1293,2450,1104,1215,1193,1238,1240,1262,1302,1327,1367,1392,1410,1347,1312,1264,1201,1149,1123,1123,1129,1120,1150,1120,1133,1123,1119,1121,1109,1126,1111,1123,1119,1131,1165,1163,1152,1126,1125,1126,1152,2449,1350,1049,1168,1211,1239,1270,1299,1327,1380,1404,1405,1371,1326,1237,1178,1147,1126,1137,1127,1141,1152,1144,1146,1136,1089,1107,1114,1117,1107,1135,1135,1126,1145,1169,1182,1200,1164,1161,1159,1155,1174,2479,1615,1065,1197,1200,1231,1264,1305,1333,1355,1396,1380,1358,1303,1245,1180,1170,1131,1119,1143,1136,1165,1136,1156,1136,1133,1131,1125,1126,1131,1125,1131,1111,1136,1115,1124,1168,1165,1161,1168,1151,1142,1134,1167,2495,1434,1116,1199,1219,1253,1277,1303,1328,1360,1406,1407,1357,1296,1259,1177,1145,1120,1129,1122,1145,1139,1129,1130,1122,1134,1107,1111,1117,1126,1121,1136,1157,1160,1166,1170,1145,1152,1153,1168,1713,2099,808,1214,1204,1248,1251,1297,1327,1351,1362,1389,1398,1349,1269,1188,1185,1152,1137,1141,1159,1157,1149,1152,1133,1121,1150,1152,1121,1117,1147,1158,1146,1147,1168,1165,1175,1171,1202,1187,1161,1141,1153,1173,2459,1648,1067,1197,1198,1234,1264,1273,1314,1345,1387,1395,1342,1294,1246,1187,1154,1136,1136,1136,1135,1133,1133,1123,1107,1118,1119,1117,1110,1139,1134,1107,1126,1142,1134,1107,1151,1184,1175,1197,1211,1168,1147,1164,1168,2015,2018,913,1197,1202,1237,1237,1270,1297,1318,1357,1377,1328,1305,1263,1210,1169,1139,1151,1124,1147,1123,1151,1139,1120,1136,1131,1123,1120,1103,1077,1134,1115,1121,1133,1136,1150,1168,1181,1168,1168,1154,1125,1136,1200,2463,1339,1151,1194,1209,1232,1250,1278,1328,1360,1386,1392,1360,1307,1251,1182,1135,1127,1105,1115,1118,1122,1114,1105,1134,1110,1122,1119,1126,1124,1098,1138,1136,1156,1171,1168,1189,1164,1135,1151,1157,1263,2454,1106,1183,1187,1205,1242,1263,1296,1345,1374,1409,1400,1347,1286,1254,1197,1177,1153,1139,1166,1172,1152,1156,1152,1136,1136,1136,1136,1153,1147,1117,1136,1157,1168,1154,1169,1168,1173,1163,1170,1175,1177,1371,2409,1029,1232,1229,1221,1223,1250,1287,1335,1377,1393,1379,1301,1278,1225,1168,1142,1127,1133,1136,1152,1131,1145,1156,1111,1110,1120,1129,1125,1107,1100,1118,1130,1107,1141,1149,1177,1174,1163,1151,1153,1139,1211,2479,1254,1199,1154,1210,1253,1280,1289,1331,1344,1381,1377,1345,1296,1249,1191,1152,1145,1149,1139,1152,1135,1123,1137,1136,1146,1127,1132,1124,1135,1113,1127,1151,1136,1163,1176,1167,1161,1136,1145,1815,1994,830,1216,1187,1239,1271,1285,1324,1353,1392,1407,1383,1318,1243,1171,1139,1141,1146,1137,1152,1142,1139,1124,1120,1138,1110,1119,1117,1129,1143,1115,1137,1145,1161,1169,1167,1162,1127,1134,1127,1476,2355,899,1227,1182,1207,1218,1249,1255,1327,1351,1365,1345,1303,1254,1202,1173,1146,1136,1125,1123,1126,1127,1129,1109,1141,1132,1133,1121,1117,1133,1133,1135,1143,1190,1179,1190,1173,1146,1136,1151,1200,2480,1419,1095,1223,1234,1263,1279,1328,1347,1379,1424,1424,1381,1315,1237,1198,1182,1170,1128,1141,1156,1147,1137,1136,1139,1104,1147,1130,1097,1102,1127,1110,1127,1162,1165,1170,1181,1155,1134,1150,1138,1961,2083,871,1213,1207,1242,1254,1253,1305,1337,1374,1387,1348,1319,1239,1199,1168,1126,1120,1119,1145,1114,1135,1117,1139,1114,1117,1103,1130,1104,1121,1118,1130,1154,1170,1191,1198,1188,1152,1145,1134,1161,2077,2001,907,1200,1203,1242,1261,1267,1329,1360,1392,1390,1355,1331,1280,1227,1174,1151,1152,1150,1169,1168,1157,1161,1148,1130,1147,1126,1133,1143,1136,1152,1151,1169,1197,1197,1163,1154,1162,1175,1248,2473,1139,1172,1214,1247,1275,1298,1322,1357,1372,1444,1415,1363,1319,1257,1184,1143,1142,1159,1149,1158,1168,1156,1163,1153,1148,1118,1133,1131,1143,1141,1142,1131,1159,1177,1192,1179,1185,1167,1136,1156,1185,2498,1477,1098,1181,1194,1223,1250,1295,1337,1390,1409,1394,1371,1296,1257,1186,1156,1127,1126,1139,1121,1145,1135,1153,1148,1152,1138,1143,1120,1119,1136,1155,1146,1126,1152,1129,1185,1195,1206,1177,1183,1169,1159,1180,1222,2529,1397,1179,1202,1219,1258,1285,1321,1361,1400,1373,1395,1366,1328,1274,1193,1154,1139,1136,1136,1153,1156,1150,1147,1147,1115,1135,1113,1125,1168,1137,1136,1157,1152,1145,1168,1152,1168,1168,1199,1216,1192,1167,1152,1169,1186,1230,2464,1257,1167,1200,1261,1281,1277,1325,1342,1389,1417,1422,1391,1339,1255,1211,1154,1138,1143,1144,1168,1136,1161,1162,1102,1136,1109,1129,1125,1135,1131,1149,1150,1141,1162,1187,1191,1195,1204,1180,1171,1155,1174,1793,2227,835,1227,1217,1241,1279,1295,1337,1379,1410,1424,1415,1335,1296,1217,1183,1131,1104,1115,1138,1117,1136,1127,1103,1099,1086,1087,1091,1120,1111,1129,1111,1120,1118,1116,1146,1126,1142,1122,1155,1163,1186,1198,1191,1178,1175,1152,1179,2365,1889,1030,1177,1184,1221,1232,1273,1328,1328,1392,1396,1372,1331,1265,1200,1154,1105,1110,1130,1138,1109,1123,1122,1115,1120,1104,1085,1104,1126,1111,1106,1123,1088,1122,1110,1132,1152,1151,1127,1133,1151,1157,1178,1179,1155,1151,1142,1168,2074,2087,939,1171,1198,1224,1250,1280,1302,1317,1376,1395,1375,1322,1255,1233,1167,1106,1136,1113,1140,1126,1115,1130,1135,1132,1115,1126,1106,1122,1114,1141,1136,1136,1117,1159,1164,1168,1154,1200,1203,1166,1142,1152,1168,1906,2068,846,1231,1216,1235,1278,1285,1342,1383,1407,1437,1418,1351,1317,1229,1153,1151,1127,1138,1167,1152,1127,1136,1151,1122,1136,1130,1132,1136,1142,1125,1137,1147,1135,1162,1138,1171,1165,1203,1194,1125,1138,1170,1152,1715,2288,823,1221,1173,1214,1215,1271,1299,1312,1354,1373,1360,1324,1289,1218,1153,1131,1104,1094,1110,1119,1127,1115,1114,1123,1136,1140,1125,1110,1131,1135,1134,1147,