1815,1792,1798,1785,1793,1776,1783,1760,1757,1736,1731,1728,1746,1728,1749,1730,1663,1642,1630,1616,2275,2768,945,1647,1629,1665,1685,1711,1744,1765,1766,1688,1581,1509,1488,1481,1454,1456,1456,1457,1459,1463,1446,1433,1419,1430,1447,1486,1478,1439,1422,1425,1431,1687,2865,1090,1571,1525,1579,1616,1661,1710,1758,1787,1766,1678,1600,1581,1584,1584,1584,1590,1582,1590,1589,1587,1587,1573,1584,1607,1648,1695,1690,1671,1655,1671,1682,1887,3157,1451,1825,1806,1865,1891,1930,1968,2016,2059,2023,1933,1843,1829,1844,1848,1863,1879,1890,1914,1918,1919,1922,1923,1931,1954,1973,2029,2021,1990,1987,2002,2015,2235,3556,1651,2142,2134,2197,2241,2275,2313,2367,2387,2372,2299,2224,2183,2167,2141,2124,2154,2166,2184,2201,2192,2175,2150,2129,2157,2166,2155,2175,2166,2119,2111,2105,2095,2803,2963,1457,2127,2151,2188,2225,2256,2297,2333,2354,2318,2214,2115,2064,2022,1979,1968,1968,1983,1984,1969,1943,1934,1915,1904,1889,1879,1872,1872,1909,1909,1905,1882,1845,1837,1840,1845,3275,2346,1616,1862,1911
1941,1967,2010,2054,2090,2087,2031,1947,1875,1851,1831,1810,1793,1794,1797,1810,1808,1810,1792,1791,1792,1778,1782,1783,1789,1779,1787,1792,1795,1808,1809,1829,1861,1897,1877,1855,1835,1829,1830,1999,3296,1773,1904,1878,1923,1958,1977,2017,2064,2096,2096,2032,1954,1898,1875,1859,1834,1831,1820,1830,1840,1843,1855,1849,1849,1844,1846,1845,1837,1841,1845,1846,1857,1860,1861,1867,1907,1938,1923,1887,1860,1858,1861,1958,3373,1972,1885,1898,1943,1972,2003,2037,2082,2117,2124,2131,2059,1985,1943,1911,1875,1863,1858,1859,1872,1877,1889,1873,1861,1850,1841,1840,1838,1841,1836,1842,1843,1841,1847,1883,1909,1904,1856,1839,1826,1830,1920,3346,1884,1808,1883,1934,1967,2003,2045,2096,2141,2171,2134,2046,1973,1905,1856,1818,1795,1797,1824,1827,1839,1838,1839,1838,1814,1824,1820,1822,1814,1830,1837,1840,1865,1889,1936,1925,1879,1861,1856,1863,2151,3216,1471,1922,1920,1978,2004,2037,2096,2148,2179,2205,2158,2066,1984,1933,1878,1854,1843,1853,1870,1873,1867,1874,1871,1862,1850,1840,1841,1831,1839
1841,1852,1856,1865,1868,1869,1877,1883,1909,1931,1967,1962,1915,1893,1904,1904,2438,3213,1446,1970,1955,1987,2020,2042,2087,2130,2160,2166,2107,2032,1967,1931,1904,1871,1878,1881,1893,1891,1899,1901,1890,1879,1867,1870,1861,1860,1859,1866,1868,1872,1876,1880,1886,1891,1897,1901,1900,1904,1923,1936,1982,1968,1926,1905,1908,1909,2810,3103,1487,1968,1983,2009,2032,2064,2097,2138,2151,2139,2083,1993,1935,1904,1878,1869,1863,1857,1856,1851,1841,1851,1834,1826,1814,1807,1807,1803,1808,1809,1804,1808,1819,1819,1829,1826,1827,1825,1861,1870,1909,1899,1860,1856,1853,1850,2786,2711,1426,1915,1945,1986,2025,2066,2112,2155,2193,2209,2146,2059,1978,1920,1879,1869,1867,1879,1890,1893,1898,1901,1889,1883,1886,1878,1891,1888,1899,1915,1914,1918,1911,1915,1909,1935,1964,2000,1968,1952,1919,1923,1919,2288,3295,1618,1997,1973,2003,2043,2070,2118,2160,2197,2213,2162,2071,2004,1975,2021,2005,1998,2000,2001,2000,2000,1982,1975,1966,1963,1954,1950,1949,1945,1941,1938,1951,1955,1961,1959,1962,1969,1977
1984,1986,2026,2029,2064,2035,2004,1979,1983,2013,3567,2569,1895,2000,2034,2062,2086,2119,2160,2220,2256,2229,2157,2077,2034,2003,1986,1985,1981,1981,1971,1968,1962,1951,1937,1921,1917,1906,1890,1893,1897,1903,1903,1898,1893,1902,1899,1898,1909,1904,1904,1911,1923,1930,1931,1937,1920,1925,1936,2396,3255,1506,2000,1971,2013,2035,2064,2109,2146,2161,2175,2123,2059,1968,1943,1915,1897,1897,1906,1903,1905,1898,1904,1891,1899,1899,1892,1890,1901,1906,1917,1919,1922,1943,1953,1998,1991,1967,1955,1957,1959,2201,3312,1627,1984,2021,2074,2102,2151,2192,2239,2281,2303,2267,2176,2083,2000,1967,1931,1935,1919,1937,1940,1936,1936,1922,1917,1913,1913,1919,1919,1930,1931,1936,1939,1958,1978,2007,1996,1967,1953,1952,1954,2449,3221,1454,2028,2006,2039,2071,2102,2143,2179,2207,2216,2160,2069,2001,1968,1938,1923,1921,1923,1927,1930,1935,1934,1929,1931,1921,1922,1931,1927,1927,1935,1949,1947,1984,1983,2015,2001,1968,1940,1957,1951,2625,3233,1446,2033,2028,2065,2098,2132,2176,2217,2243,2234,2170,2082
2022,1994,1968,1950,1939,1939,1938,1938,1948,1936,1936,1923,1919,1911,1918,1907,1908,1919,1914,1920,1932,1929,1938,1985,1990,1994,1986,1962,1943,1950,1966,3351,2704,1773,1979,2018,2058,2081,2112,2158,2188,2192,2172,2093,2013,1969,1949,1930,1918,1921,1925,1921,1929,1923,1917,1909,1898,1900,1897,1889,1898,1903,1913,1911,1918,1956,1955,1973,1982,1941,1938,1943,1941,2782,2876,1424,2000,2029,2073,2109,2141,2178,2231,2277,2275,2219,2122,2030,1983,1935,1911,1915,1923,1939,1945,1939,1941,1936,1929,1921,1921,1917,1920,1920,1934,1954,1968,1997,1995,1955,1948,1945,1950,2288,3297,1513,2022,2013,2057,2102,2126,2171,2210,2251,2256,2217,2131,2063,2021,1983,1952,1946,1945,1954,1958,1959,1957,1938,1932,1936,1932,1927,1935,1937,1937,1945,1953,1962,1962,1995,1995,2002,2000,1967,1953,1953,1954,2927,3078,1517,1981,1997,2032,2053,2079,2124,2173,2191,2178,2114,2040,1981,1959,1936,1921,1917,1919,1926,1926,1929,1930,1917,1904,1895,1897,1887,1889,1896,1904,1901,1903,1904,1914,1955,1964,1967,1972,1942,1937
1936,1948,3114,2959,1613,1982,2003,2035,2070,2106,2142,2172,2201,2194,2112,2035,1989,1953,1936,1921,1919,1919,1926,1931,1936,1937,1920,1915,1915,1913,1907,1923,1930,1939,1936,1951,1947,1952,1947,1958,1953,1952,1963,1968,2006,2018,2015,2000,1967,1968,1963,1983,3381,2715,1790,1985,2026,2061,2096,2133,2181,2229,2263,2252,2192,2125,2079,2018,1984,1966,1967,1961,1954,1963,1961,1957,1952,1943,1933,1927,1938,1927,1936,1945,1949,1951,1957,1968,1989,2032,2017,1987,1972,1969,1970,2007,3483,2074,1851,2032,2089,2119,2159,2192,2233,2282,2332,2319,2226,2125,2035,1974,1936,1925,1931,1949,1958,1967,1965,1954,1947,1945,1937,1936,1937,1946,1934,1938,1935,1939,1966,1975,2003,1989,1968,1949,1951,1951,2315,3362,1648,2032,1995,2032,2073,2101,2147,2192,2225,2240,2199,2112,2032,1975,1936,1910,1894,1895,1901,1906,1914,1923,1910,1910,1901,1897,1894,1895,1896,1903,1889,1898,1904,1915,1906,1916,1956,1973,1959,1954,1934,1930,1935,2014,3591,2330,1924,1947,1997,2028,2054,2096,2131,2163,2177,2149,2067,1997,1954
1931,1908,1887,1902,1905,1911,1913,1917,1989,1968,1968,1959,1951,1962,1950,1953,1950,1938,1942,1940,1943,1946,1952,1988,1970,2000,1994,1955,1949,1941,1947,2747,3254,1518,1995,2000,2027,2045,2079,2115,2154,2176,2151,2091,2010,1966,1930,1904,1893,1891,1889,1889,1891,1891,1893,1885,1883,1871,1867,1858,1872,1870,1872,1874,1879,1879,1823,1794,1840,1872,1847,1834,1815,1809,1801,1879,3335,2111,1845,1847,1878,1904,1932,1966,2007,2041,2065,2023,1961,1881,1837,1808,1776,1773,1774,1771,1762,1761,1761,1744,1744,1725,1732,1741,1744,1743,1744,1759,1787,1815,1815,1790,1776,1786,1781,1882,3334,1748,1771,1853,1914,1947,1983,2027,2066,2119,2151,2133,2061,1968,1900,1840,1808,1791,1803,1808,1823,1856,1851,1839,1849,1829,1843,1840,1841,1879,1900,1907,1901,1875,1857,1862,1858,2810,2769,1384,1917,1936,1977,2000,2042,2096,2146,2182,2173,2095,2019,1946,1889,1862,1846,1843,1853,1862,1858,1856,1849,1844,1837,1837,1815,1822,1819,1792,1790,1830,1845,1842,1835,1795,1792,1792,1809,3111,2655,1523,1826,1860,1886
1911,1939,1985,2022,2061,2018,1942,1874,1845,1823,1802,1795,1795,1808,1799,1805,1795,1792,1779,1782,1770,1769,1775,1786,1781,1777,1787,1793,1840,1865,1853,1840,1823,1813,1818,1865,3375,2359,1776,1850,1887,1915,1936,1969,2011,2038,2055,2010,1936,1861,1842,1818,1793,1804,1800,1800,1809,1810,1806,1794,1792,1795,1779,1776,1783,1791,1794,1797,1795,1808,1856,1855,1871,1866,1818,1808,1809,1814,2718,3007,1421,1859,1877,1895,1935,1963,1998,2019,2046,2032,1969,1900,1858,1823,1791,1779,1759,1776,1776,1776,1773,1762,1776,1771,1777,1774,1776,1774,1776,1796,1808,1854,1840,1804,1783,1796,1790,1959,3273,1595,1795,1863,1914,1959,1997,2041,2094,2137,2174,2129,2037,1953,1881,1840,1820,1829,1836,1857,1849,1855,1851,1842,1840,1826,1822,1819,1821,1823,1867,1865,1887,1885,1849,1839,1840,1846,2400,3131,1361,1936,1915,1953,1981,2017,2064,2112,2145,2146,2078,1986,1917,1873,1849,1821,1828,1826,1837,1839,1837,1833,1818,1808,1802,1795,1793,1803,1808,1807,1813,1805,1813,1808,1808,1842,1849,1863,1855,1811,1805
1811,1811,2405,3169,1401,1904,1872,1901,1920,1969,1975,2029,2031,2033,1995,1911,1872,1843,1838,1827,1821,1815,1815,1829,1825,1823,1826,1819,1809,1808,1811,1808,1818,1814,1809,1835,1831,1847,1847,1850,1859,1857,1870,1874,1924,1923,1933,1920,1894,1878,1883,1894,3247,2800,1730,1930,1965,2000,2019,2047,2095,2118,2131,2098,2022,1951,1911,1895,1863,1849,1840,1840,1837,1835,1822,1819,1808,1794,1785,1779,1782,1778,1778,1789,1788,1788,1799,1803,1807,1805,1825,1838,1871,1872,1852,1830,1839,1841,1968,3290,1763,1854,1900,1938,1970,2002,2035,2094,2134,2172,2141,2063,1963,1897,1847,1822,1808,1803,1822,1825,1826,1835,1825,1808,1801,1808,1808,1808,1809,1813,1814,1826,1833,1837,1879,1883,1899,1901,1861,1860,1872,1870,2866,2864,1467,1935,1958,1995,2027,2064,2111,2157,2199,2201,2129,2047,1968,1919,1887,1873,1867,1875,1877,1877,1880,1883,1870,1872,1855,1855,1872,1859,1858,1858,1866,1863,1869,1869,1872,1914,1912,1931,1923,1882,1869,1873,1890,2955,3013,1521,1936,1961,1982,2003,2034,2083,2115,2135,2118
2067,1988,1934,1899,1873,1852,1850,1854,1846,1856,1867,1856,1857,1846,1840,1837,1840,1829,1833,1840,1840,1850,1845,1851,1857,1861,1874,1919,1936,1930,1917,1898,1878,1877,1913,3389,2453,1799,1904,1946,1967,1997,2032,2080,2118,2149,2134,2070,2000,1941,1889,1858,1846,1849,1851,1842,1850,1854,1856,1852,1851,1843,1845,1840,1840,1840,1851,1857,1868,1873,1907,1919,1929,1920,1895,1879,1888,1881,2960,2659,1493,1947,1978,2011,2037,2095,2140,2187,2224,2226,2166,2090,2018,1947,1922,1902,1904,1910,1915,1918,1911,1917,1905,1903,1905,1891,1888,1899,1904,1907,1919,1918,1914,1920,1935,1967,1965,1978,1979,1938,1923,1931,1943,3169,2896,1648,1977,2003,2030,2047,2096,2128,2161,2192,2179,2117,2043,1986,1953,1922,1904,1891,1907,1894,1899,1904,1900,1887,1872,1877,1873,1867,1869,1875,1867,1874,1881,1893,1887,1890,1889,1905,1902,1941,1933,1962,1955,1915,1898,1904,1913,2864,3134,1535,1950,1959,1985,2005,2033,2073,2110,2139,2128,2077,1993,1935,1903,1869,1863,1865,1870,1871,1876,1879,1882,1872,1852,1843,1845
1840,1851,1853,1846,1847,1855,1851,1851,1869,1873,1878,1873,1889,1901,1936,1926,1904,1890,1899,1904,2064,3376,1870,1958,1958,2000,2032,2062,2105,2144,2182,2202,2191,2119,2042,1963,1902,1872,1850,1854,1857,1868,1857,1862,1858,1855,1847,1840,1837,1840,1846,1851,1852,1845,1853,1866,1886,1887,1914,1911,1872,1866,1875,1872,2439,3002,1365,1968,1961,1997,2034,2079,2122,2163,2223,2225,2201,2116,2030,1962,1917,1893,1882,1890,1903,1917,1919,1921,1907,1903,1877,1874,1883,1879,1876,1884,1885,1878,1891,1892,1890,1885,1894,1940,1934,1953,1935,1907,1879,1881,1889,2960,2987,1514,1920,1927,1959,1984,2015,2055,2093,2111,2104,2043,1982,1913,1869,1837,1813,1808,1809,1807,1799,1808,1799,1802,1791,1792,1793,1797,1797,1794,1794,1794,1807,1808,1810,1812,1821,1819,1826,1835,1869,1851,1895,1884,1857,1856,1866,1872,2423,3295,1488,1952,1919,1941,1981,2019,2059,2089,2123,2128,2080,2021,1953,1920,1882,1849,1854,1856,1858,1856,1859,1856,1858,1850,1854,1853,1871,1855,1863,1869,1883,1872,1891,1894,1888,1894,1901
1920,1957,1938,1928,1907,1920,1925,2112,3315,1746,1959,1989,2034,2074,2099,2139,2192,2231,2276,2257,2176,2089,2001,1936,1895,1887,1885,1903,1902,1904,1911,1896,1887,1885,1873,1885,1886,1882,1886,1885,1886,1901,1933,1934,1953,1956,1914,1904,1909,1911,2576,3056,1419,1982,1975,2015,2038,2079,2112,2164,2204,2224,2181,2100,2010,1938,1895,1862,1867,1870,1872,1871,1869,1868,1870,1854,1855,1849,1853,1841,1842,1858,1855,1855,1858,1858,1863,1875,1919,1929,1911,1904,1889,1872,1876,2000,3514,2191,1922,1927,1954,1981,2001,2039,2077,2122,2135,2108,2043,1974,1923,1886,1855,1844,1848,1856,1857,1847,1843,1850,1849,1839,1839,1837,1835,1845,1843,1842,1856,1858,1871,1869,1878,1887,1886,1910,1936,1963,1959,1945,1924,1933,1939,2083,3498,2105,2022,1966,2009,2032,2069,2093,2130,2166,2188,2159,2089,2017,1962,1925,1883,1858,1861,1844,1853,1841,1824,1827,1815,1808,1801,1797,1787,1780,1776,1777,1777,1776,1776,1791,1788,1819,1802,1769,1755,1749,1749,2073,3003,1317,1791,1803,1840,1875,1909,1938,1997,2041,2085
2064,1979,1899,1810,1744,1711,1713,1730,1743,1760,1762,1774,1776,1775,1785,1798,1794,1806,1808,1811,1840,1855,1887,1872,1855,1835,1843,1843,2079,3329,1663,1931,1926,1967,2000,2027,2083,2129,2182,2206,2167,2105,2017,1948,1894,1849,1829,1827,1831,1824,1810,1799,1787,1783,1788,1778,1772,1767,1767,1776,1773,1776,1825,1837,1840,1817,1792,1783,1789,1808,3262,2481,1648,1821,1863,1902,1926,1961,1985,2033,2067,2041,1995,1933,1871,1831,1799,1791,1805,1814,1820,1826,1828,1826,1824,1833,1828,1827,1835,1836,1847,1855,1849,1859,1866,1888,1914,1950,1939,1920,1900,1893,1891,2067,3459,1935,1991,1949,1977,2000,2034,2081,2115,2149,2160,2128,2067,2004,1961,1937,1891,1883,1888,1887,1895,1894,1902,1897,1881,1877,1868,1870,1875,1879,1878,1881,1887,1883,1891,1885,1901,1922,1927,1975,1965,1923,1911,1915,1915,2135,3327,1648,1968,1968,2023,2047,2078,2121,2159,2209,2247,2224,2158,2082,1998,1945,1902,1889,1892,1904,1911,1910,1917,1909,1900,1887,1889,1890,1877,1891,1894,1898,1904,1907,1904,1915,1955,1968,1965
1963,1931,1925,1928,1924,2864,2842,1479,1983,2000,2027,2060,2098,2150,2195,2224,2242,2190,2109,2020,1954,1909,1888,1890,1887,1893,1905,1894,1898,1895,1874,1881,1872,1856,1869,1878,1872,1884,1881,1891,1895,1904,1901,1907,1906,1913,1918,1945,1956,1953,1953,1933,1930,1934,1956,3443,2669,1774,1948,1982,2005,2032,2067,2098,2141,2162,2155,2101,2018,1965,1919,1890,1861,1857,1872,1860,1872,1872,1873,1872,1863,1859,1846,1850,1854,1849,1838,1856,1856,1862,1847,1878,1877,1891,1888,1886,1892,1910,1919,1919,1940,1936,1919,1915,1920,2014,3546,2285,1959,1949,1980,1997,2020,2061,2086,2122,2137,2128,2086,2003,1939,1903,1869,1853,1850,1856,1856,1860,1856,1856,1846,1836,1836,1831,1840,1825,1839,1842,1847,1855,1856,1867,1866,1869,1867,1875,1895,1914,1914,1907,1893,1901,1907,2097,3308,1744,1927,1949,1995,2032,2061,2097,2138,2182,2226,2218,2150,2062,1966,1894,1853,1840,1845,1855,1856,1862,1863,1861,1849,1844,1855,1855,1865,1863,1858,1872,1879,1878,1895,1915,1938,1934,1919,1888,1888,1884,1967,3494,2043
1860,1929,1974,2000,2032,2078,2115,2160,2193,2186,2129,2042,1947,1882,1841,1822,1829,1830,1834,1849,1854,1850,1837,1827,1824,1823,1822,1818,1823,1840,1835,1877,1874,1895,1903,1854,1840,1854,1859,2746,3027,1397,1920,1920,1950,1981,2013,2047,2097,2143,2137,2096,2032,1951,1890,1846,1823,1811,1831,1825,1823,1830,1831,1827,1831,1831,1826,1827,1816,1823,1834,1847,1872,1882,1909,1901,1878,1853,1855,1856,1895,3445,2416,1793,1892,1925,1958,1979,2007,2063,2100,2131,2119,2066,1993,1941,1882,1847,1833,1840,1838,1835,1840,1840,1851,1843,1840,1838,1825,1830,1829,1829,1827,1842,1874,1890,1906,1903,1854,1842,1849,1847,2448,3190,1347,1926,1909,1937,1971,2001,2045,2089,2121,2135,2107,2042,1975,1925,1875,1838,1835,1843,1843,1845,1850,1840,1839,1837,1841,1836,1839,1847,1840,1849,1860,1885,1925,1915,1893,1866,1863,1867,1869,3199,2348,1584,1935,1981,2010,2034,2078,2129,2171,2212,2223,2164,2083,1985,1922,1865,1853,1865,1861,1884,1881,1878,1864,1862,1851,1840,1837,1835,1842,1841,1842,1856,1857,1883,1893
1921,1910,1872,1862,1866,1872,2159,3294,1571,1952,1918,1958,1984,2005,2062,2097,2138,2162,2124,2065,1978,1930,1875,1851,1840,1856,1859,1855,1850,1861,1849,1840,1837,1830,1831,1840,1835,1840,1840,1845,1854,1863,1856,1859,1858,1871,1872,1872,1879,1878,1902,1900,1929,1906,1870,1843,1855,1855,2416,3239,1471,1909,1872,1900,1922,1946,1976,2009,2031,2035,1999,1925,1861,1825,1787,1768,1745,1766,1761,1756,1750,1744,1745,1745,1737,1737,1734,1739,1745,1747,1755,1761,1758,1767,1773,1774,1771,1786,1789,1819,1814,1840,1830,1808,1808,1808,1838,3228,2633,1671,1856,1890,1918,1943,1981,2015,2057,2089,2082,2039,1968,1922,1865,1817,1798,1808,1817,1824,1825,1834,1826,1818,1814,1815,1805,1808,1803,1807,1808,1812,1837,1826,1825,1837,1859,1889,1893,1893,1885,1890,1902,1903,3296,2392,1712,1964,2017,2033,2075,2113,2161,2206,2246,2256,2205,2122,2032,1953,1904,1883,1878,1888,1897,1899,1891,1886,1883,1872,1871,1864,1867,1862,1870,1872,1874,1878,1894,1914,1942,1932,1911,1888,1885,1887,2064,3472,1919,1963,1935
1973,1987,2013,2057,2095,2128,2154,2131,2088,2006,1935,1879,1826,1820,1824,1835,1824,1824,1826,1824,1822,1830,1821,1833,1825,1830,1843,1841,1842,1850,1859,1869,1896,1893,1920,1914,1871,1857,1867,1860,2643,3189,1419,1913,1895,1918,1943,1964,1995,2021,2058,2057,2006,1965,1895,1840,1792,1763,1747,1748,1750,1741,1733,1733,1727,1723,1717,1709,1711,1705,1712,1717,1718,1720,1725,1719,1742,1776,1805,1805,1798,1756,1756,1750,1859,3305,1887,1792,1776,1808,1835,1856,1898,1933,1962,2000,1984,1933,1861,1790,1711,1665,1632,1630,1630,1617,1616,1607,1599,1591,1585,1581,1584,1577,1587,1584,1597,1637,1671,1670,1642,1627,1632,1638,1681,3177,1699,1507,1695,1763,1797,1842,1885,1948,2014,2070,2087,2026,1957,1861,1799,1762,1751,1776,1795,1814,1808,1824,1823,1823,1822,1819,1820,1825,1831,1847,1872,1916,1909,1885,1877,1878,1891,2096,3450,1775,1968,1982,2021,2064,2105,2157,2203,2266,2289,2274,2221,2145,2066,2010,1970,1959,1968,1968,1979,1979,1981,1969,1955,1950,1961,1956,1956,1959,1964,2004,2000,2032,2019
1969,1959,1963,1973,2559,3338,1485,2043,2015,2047,2073,2091,2128,2175,2205,2218,2185,2114,2037,1975,1937,1905,1907,1898,1895,1894,1897,1891,1887,1887,1875,1871,1862,1869,1865,1879,1878,1878,1886,1921,1939,1936,1920,1891,1887,1885,1913,3383,2608,1776,1909,1940,1968,2000,2041,2073,2112,2134,2111,2063,2010,1941,1898,1867,1840,1843,1853,1845,1840,1840,1840,1833,1834,1818,1829,1821,1807,1818,1829,1830,1839,1844,1856,1857,1892,1903,1919,1918,1880,1863,1871,1873,2654,3163,1450,1931,1920,1942,1971,2001,2035,2083,2107,2114,2079,2017,1969,1919,1874,1845,1833,1840,1850,1843,1837,1847,1856,1855,1858,1852,1853,1847,1854,1853,1853,1865,1868,1895,1935,1919,1909,1885,1877,1875,1877,3248,2332,1621,1923,1975,2008,2034,2075,2121,2163,2213,2221,2171,2095,2000,1915,1867,1850,1840,1844,1859,1859,1867,1867,1863,1841,1845,1850,1847,1846,1854,1862,1866,1873,1904,1922,1919,1917,1892,1886,1893,1886,3149,2661,1595,1926,1949,1991,2017,2059,2094,2137,2176,2191,2131,2069,1983,1917,1868,1856,1840,1853,1863,1867
1866,1872,1865,1846,1843,1850,1855,1839,1851,1854,1846,1856,1862,1869,1867,1865,1872,1875,1920,1937,1923,1916,1899,1879,1881,1909,3453,2637,1809,1907,1942,1967,1990,2030,2075,2110,2126,2119,2081,2013,1952,1902,1857,1840,1840,1837,1837,1828,1838,1831,1826,1811,1809,1801,1811,1807,1807,1801,1817,1817,1829,1835,1839,1840,1843,1853,1860,1878,1873,1913,1904,1872,1862,1859,1867,2265,3385,1597,1947,1903,1933,1963,1984,2005,2057,2090,2098,2086,2021,1959,1913,1858,1831,1808,1822,1827,1831,1842,1842,1841,1831,1829,1832,1829,1833,1830,1831,1835,1849,1853,1847,1856,1858,1861,1892,1874,1917,1903,1885,1883,1890,1886,2801,2868,1483,1945,1968,2001,2037,2069,2106,2149,2186,2213,2175,2103,2013,1936,1886,1856,1847,1845,1857,1863,1867,1857,1857,1853,1850,1841,1849,1853,1857,1858,1845,1857,1854,1856,1855,1871,1882,1919,1899,1883,1865,1863,1873,2067,3468,1889,1951,1905,1939,1972,2003,2037,2092,2127,2147,2128,2067,1996,1935,1887,1845,1819,1822,1839,1840,1840,1835,1840,1838,1827,1819,1808,1823,1819,1824
1833,1835,1840,1854,1894,1909,1905,1899,1871,1845,1858,1899,3455,2434,1831,1902,1934,1974,1985,2014,2064,2096,2128,2115,2067,1990,1929,1873,1831,1808,1808,1809,1817,1811,1835,1836,1833,1819,1808,1807,1815,1809,1819,1813,1814,1821,1855,1889,1868,1858,1830,1819,1829,1903,3395,1883,1776,1870,1919,1957,1989,2039,2078,2134,2167,2181,2129,2038,1942,1870,1812,1791,1792,1797,1808,1808,1815,1795,1795,1792,1791,1797,1829,1830,1853,1854,1819,1815,1815,1815,2353,2893,1264,1881,1914,1962,2000,2033,2098,2146,2201,2247,2231,2151,2045,1950,1891,1856,1843,1867,1871,1884,1887,1882,1877,1863,1854,1861,1887,1907,1904,1883,1853,1840,1840,1839,2992,2646,1424,1882,1919,1951,1985,2025,2066,2112,2146,2160,2117,2034,1955,1873,1829,1807,1798,1808,1813,1815,1823,1818,1808,1811,1799,1804,1805,1810,1805,1818,1870,1885,1877,1872,1837,1826,1835,1862,3407,2512,1691,1887,1904,1931,1971,2015,2055,2096,2131,2101,2063,2001,1941,1895,1860,1839,1840,1838,1841,1843,1842,1834,1827,1820,1811,1815,1823,1818,1818,1829,1837
1840,1851,1853,1855,1903,1911,1907,1904,1876,1866,1862,1875,3133,2882,1628,1913,1931,1954,1987,2006,2054,2086,2119,2118,2064,1989,1949,1904,1871,1853,1855,1847,1850,1840,1839,1831,1839,1823,1823,1822,1818,1825,1833,1834,1833,1843,1843,1850,1853,1904,1907,1906,1897,1871,1861,1866,1878,3337,2615,1753,1889,1921,1943,1977,1987,2039,2080,2093,2091,2059,1975,1928,1872,1837,1818,1803,1814,1815,1806,1814,1808,1803,1797,1785,1789,1790,1796,1799,1808,1815,1851,1885,1878,1843,1840,1833,1845,1862,3353,2097,1679,1883,1936,1971,2009,2036,2096,2132,2186,2198,2156,2081,1988,1905,1840,1814,1817,1831,1846,1861,1849,1841,1838,1843,1830,1842,1878,1867,1904,1899,1858,1847,1857,1856,2179,3245,1408,1911,1919,1965,1996,2032,2083,2135,2174,2217,2191,2118,2019,1925,1856,1821,1807,1813,1826,1839,1836,1829,1828,1814,1809,1808,1815,1817,1829,1852,1855,1889,1881,1850,1838,1829,1829,2199,3304,1517,1933,1885,1926,1947,1980,2022,2069,2117,2126,2105,2041,1978,1915,1867,1831,1815,1815,1820,1827,1829,1830,1827,1817
1811,1810,1812,1814,1815,1817,1819,1825,1833,1833,1845,1882,1893,1903,1892,1862,1850,1854,1860,3100,2875,1584,1898,1916,1934,1952,2000,2032,2079,2107,2105,2070,2002,1953,1895,1854,1836,1838,1830,1834,1826,1818,1813,1826,1809,1797,1802,1798,1792,1781,1785,1795,1804,1805,1812,1825,1844,1881,1863,1840,1821,1833,1835,2026,3343,1701,1904,1894,1935,1951,1985,2032,2077,2118,2144,2149,2086,2019,1942,1872,1814,1802,1805,1805,1812,1814,1825,1822,1809,1810,1801,1802,1806,1808,1821,1825,1830,1872,1898,1890,1870,1851,1855,1861,1872,3123,2441,1555,1925,1977,2000,2042,2082,2128,2181,2224,2234,2193,2111,2017,1943,1878,1850,1841,1853,1862,1867,1863,1860,1850,1838,1834,1832,1831,1839,1834,1840,1837,1838,1840,1852,1883,1910,1884,1870,1855,1845,1845,1902,3474,2301,1781,1895,1926,1955,1983,2025,2076,2115,2151,2145,2100,2032,1958,1893,1842,1819,1818,1821,1818,1831,1840,1840,1835,1811,1809,1801,1811,1813,1815,1823,1830,1824,1837,1840,1842,1842,1856,1861,1868,1887,1893,1899,1900,1878,1875,1879,1909,3409
2656,1762,1905,1936,1963,1991,2017,2064,2103,2131,2125,2085,2021,1957,1915,1862,1840,1837,1835,1829,1825,1839,1837,1827,1814,1811,1808,1810,1814,1812,1805,1819,1823,1822,1831,1840,1840,1842,1847,1856,1863,1868,1877,1890,1931,1901,1891,1873,1890,1900,2463,3286,1496,1958,1925,1950,1984,2017,2045,2096,2124,2145,2123,2063,1986,1933,1867,1827,1823,1821,1815,1815,1814,1815,1810,1805,1802,1804,1801,1794,1785,1797,1808,1813,1813,1825,1824,1831,1825,1830,1839,1838,1878,1877,1867,1858,1871,1853,3023,2539,1563,1920,1955,1995,2027,2064,2093,2139,2194,2202,2179,2096,2001,1925,1873,1840,1825,1843,1840,1847,1846,1839,1835,1829,1831,1821,1825,1828,1834,1837,1843,1851,1855,1858,1866,1872,1880,1884,1878,1911,1902,1891,1887,1897,1950,3542,2304,1850,1931,1961,1990,2010,2042,2085,2128,2167,2161,2109,2032,1955,1893,1841,1821,1818,1823,1827,1831,1838,1840,1830,1818,1812,1810,1802,1808,1819,1826,1830,1840,1845,1843,1855,1847,1872,1872,1905,1894,1872,1862,1859,1867,2253,3421,1662,1970,1917,1953,1964,2000
2023,2071,2113,2143,2123,2106,2032,1978,1918,1882,1862,1862,1863,1856,1865,1856,1856,1853,1840,1835,1831,1823,1825,1819,1835,1837,1840,1840,1840,1840,1854,1879,1911,1897,1882,1858,1862,1867,1925,3477,2320,1891,1904,1941,1950,1986,2015,2046,2095,2112,2103,2058,1990,1917,1871,1841,1825,1831,1827,1824,1825,1829,1825,1815,1805,1814,1815,1809,1814,1821,1810,1809,1821,1819,1867,1858,1877,1873,1845,1827,1837,1830,2737,2768,1408,1888,1920,1949,1993,2007,2058,2105,2151,2178,2167,2099,2000,1927,1851,1815,1809,1821,1828,1835,1821,1824,1811,1805,1803,1786,1801,1808,1808,1828,1861,1885,1881,1846,1836,1835,1842,1904,3483,1984,1791,1892,1942,1979,2007,2046,2103,2133,2186,2192,2128,2053,1967,1899,1840,1822,1813,1830,1836,1842,1830,1835,1815,1817,1831,1854,1858,1872,1877,1881,1923,1910,1946,1914,1855,1817,1837,1866,2464,3404,1489,1989,1956,1988,2011,2043,2073,2114,2149,2169,2135,2081,2005,1947,1904,1866,1857,1872,1889,1902,1895,1905,1893,1881,1871,1878,1855,1859,1859,1898,1968,1951,1937,1922,1923
