1872,1923,1919,1887,1853,1869,1919,1922,1878,1842,1857,1918,1934,1904,1857,1871,1922,1922,1886,1847,1867,1904,1904,1872,1841,1861,1917,1922,1881,1847,1869,1920,1927,1895,1868,1877,1932,1931,1891,1856,1867,1920,1922,1890,1867,1894,1952,1954,1920,1891,1918,1978,1978,1930,1885,1906,1981,1991,1943,1905,1919,1968,1974,1939,1904,1919,1965,1953,1910,1872,1893,1942,1943,1904,1874,1903,1961,1968,1923,1894,1913,1968,1968,1925,1889,1905,1936,1915,1879,1853,1917,2369,3157,4095,4095,4095,4095,4095,4015,2947,2331,2163,2133,2089,2000,1959,1962,1933,1881,1839,1855,1904,1899,1859,1835,1857,1884,1907,1867,1835,1860,1918,1929,1897,1867,1885,1923,1925,1903,1882,1918,1974,1973,1933,1887,1904,1966,1970,1935,1904,1927,1980,1977,1936,1895,1905,1950,1943,1906,1868,1876,1923,1926,1883,1844,1863,1911,1923,1888,1862,1894,1957,1969,1934,1877,1889,1952,1981,1939,1881,1885,1940,1964,1917,1849,1860,1925,1951,1919,1860,1867,1936,1968,1933,1872,1879,1949,1955,1904,1845,1867,1943,1967,1918,1842,1843,1915,1951,1921,1854,1846,1905,1931,1893,1825,1826,1893,1927,1894,1835,1845,1917,1939,1899,1827,1834,1903,1927,1890,1839,1855,1895,1942,1899,1829,1840,1915,1939,1899,1837,1840,1913,1938,1893,1840,1867,1951,1978,1923,1851,1856,1926,1955,1925,1872,1885,1943,1966,1918
1857,1875,1965,1991,1941,1856,1852,1915,1941,1904,1838,1840,1903,1922,1882,1839,1861,1929,1947,1899,1839,1859,1936,1965,1917,1831,1802,1863,1925,1963,2128,2695,3540,4095,4095,4095,4095,3905,2938,2259,2011,2047,2131,2112,1995,1874,1850,1878,1917,1872,1808,1817,1872,1872,1866,1821,1840,1904,1917,1871,1824,1853,1936,1958,1913,1858,1875,1953,1984,1943,1891,1922,2001,2030,1977,1903,1904,1965,1997,1963,1907,1918,1986,2005,1962,1901,1914,1973,1987,1935,1870,1894,1967,1974,1917,1851,1867,1936,1968,1932,1866,1868,1925,1949,1904,1843,1858,1925,1933,1878,1813,1835,1904,1922,1876,1823,1840,1904,1925,1878,1822,1839,1903,1917,1875,1827,1847,1917,1931,1869,1807,1840,1920,1951,1909,1839,1839,1903,1927,1889,1843,1870,1934,1939,1887,1830,1850,1919,1927,1869,1796,1809,1879,1904,1857,1805,1826,1901,1921,1872,1815,1839,1907,1921,1863,1804,1819,1894,1914,1869,1815,1843,1920,1938,1891,1836,1865,1939,1965,1921,1881,1918,1987,1995,1959,1915,1934,1997,2000,1949,1892,1902,1980,2000,1919,1889,1893,1947,1962,1920,1862,1872,1934,1947,1898,1846,1872,1936,1951,1904,1856,1885,1955,1979,1935,1854,1847,1933,1981,2035,2496,3434,4095,4095,4095,4095,4095,4095,3218,2405,2039,2010,2087,2080,1978,1881,1869,1909,1913,1853,1802,1825,1889,1906,1870,1817,1844,1918,1937
1895,1856,1894,1970,1988,1939,1889,1914,1981,1999,1959,1909,1931,1997,2012,1970,1930,1954,2013,2016,1961,1904,1920,1984,1996,1941,1887,1911,1968,1970,1909,1856,1881,1949,1958,1910,1867,1904,1977,1990,1937,1893,1930,1989,1994,1943,1921,1963,2017,2006,1963,1936,1968,2015,2000,1951,1923,1968,2006,1997,1936,1904,1929,1968,1954,1906,1887,1926,1957,1955,1904,1875,1911,1962,1953,1917,1899,1931,1975,1942,1914,1894,1931,1981,1968,1918,1892,1923,1968,1959,1890,1865,1904,1951,1935,1878,1862,1904,1958,1940,1887,1869,1905,1951,1933,1887,1867,1904,1945,1934,1888,1869,1904,1953,1939,1897,1876,1918,1968,1957,1909,1886,1918,1961,1943,1907,1897,1941,1995,1977,1924,1905,1951,2001,1982,1921,1893,1930,1975,1958,1907,1891,1931,1974,1957,1904,1886,1923,1966,1939,1889,1867,1905,1954,1936,1889,1865,1904,1952,1938,1889,1866,1892,1911,1887,1855,1859,2255,3120,4095,4095,4095,4095,4095,4095,3600,2640,2183,2094,2067,1998,1915,1904,1931,1914,1841,1794,1824,1885,1888,1832,1779,1811,1883,1893,1841,1795,1837,1904,1918,1869,1826,1846,1931,1939,1892,1860,1901,1968,1978,1920,1871,1903,1959,1957,1892,1840,1875,1936,1907,1872,1808,1872,1916,1923,1863,1812,1853,1920,1926,1871,1821,1856,1923,1936,1882,1840,1889,1952,1959,1902,1856,1901,1967,1968,1905,1856,1895,1958
1959,1894,1842,1878,1946,1953,1894,1849,1889,1956,1958,1901,1855,1890,1952,1955,1894,1850,1887,1950,1948,1885,1843,1884,1954,1956,1889,1842,1882,1942,1939,1876,1831,1869,1933,1929,1867,1825,1867,1939,1942,1883,1837,1872,1937,1937,1877,1835,1872,1935,1935,1875,1840,1876,1938,1935,1875,1840,1878,1938,1937,1882,1851,1904,1968,1968,1895,1839,1873,1937,1941,1877,1835,1878,1953,1971,1929,1891,1936,1984,1973,1911,1874,1914,1973,1966,1894,1856,1901,1964,1947,1873,1834,1872,1950,1958,1875,1821,1865,1936,1943,1883,1841,1892,1958,1937,1840,1792,1847,1943,2030,2433,3165,4095,4095,4095,4095,4095,3488,2626,2192,2032,2014,2047,2063,1987,1872,1810,1849,1913,1904,1825,1774,1820,1885,1887,1826,1793,1843,1918,1927,1872,1840,1893,1955,1958,1904,1872,1923,1988,1983,1915,1879,1935,2005,2006,1946,1904,1953,2019,2013,1937,1900,1943,2007,2000,1923,1883,1927,1978,1969,1907,1871,1921,1981,1968,1897,1859,1907,1968,1965,1897,1856,1899,1958,1954,1893,1850,1894,1945,1933,1865,1831,1883,1941,1927,1861,1831,1881,1941,1941,1879,1840,1887,1942,1936,1866,1830,1873,1936,1930,1872,1837,1887,1947,1936,1871,1833,1872,1932,1917,1851,1821,1873,1936,1931,1867,1829,1876,1935,1931,1858,1824,1869,1918,1913,1851,1817,1863,1923,1918,1862,1827,1883,1936,1923,1853,1808,1862
1925,1920,1851,1815,1867,1905,1917,1856,1830,1882,1944,1936,1872,1845,1899,1968,1968,1907,1873,1922,1974,1961,1890,1860,1917,1968,1940,1861,1825,1891,1962,1942,1872,1840,1893,1955,1951,1879,1851,1901,1955,1951,1888,1862,1913,1968,1953,1854,1806,1883,1969,2160,2736,3712,4095,4095,4095,4095,4095,3893,2879,2270,2022,1984,2032,2047,1984,1875,1824,1867,1905,1883,1808,1776,1826,1878,1870,1808,1783,1830,1888,1887,1827,1803,1858,1924,1920,1859,1830,1884,1949,1949,1888,1866,1920,1981,1970,1901,1870,1911,1968,1959,1893,1867,1913,1962,1943,1867,1827,1872,1922,1911,1843,1815,1869,1928,1915,1855,1827,1884,1945,1936,1872,1844,1905,1962,1947,1877,1849,1904,1957,1937,1872,1842,1894,1957,1945,1872,1849,1906,1968,2010,1888,1843,1905,1959,1936,1863,1843,1905,1956,1941,1875,1855,1893,1961,1939,1869,1840,1898,1951,1930,1855,1826,1885,1947,1936,1867,1836,1889,1945,1929,1867,1840,1901,1949,1927,1859,1840,1891,1938,1922,1852,1834,1893,1936,1918,1843,1819,1875,1933,1916,1845,1821,1879,1936,1927,1858,1834,1883,1929,1906,1840,1813,1874,1934,1919,1849,1823,1875,1935,1921,1858,1840,1899,1943,1921,1847,1814,1873,1927,1907,1839,1814,1875,1931,1920,1855,1833,1894,1950,1933,1863,1843,1909,1963,1936,1867,1844,1904,1952,1936,1874,1855,1908,1965,1953,1891,1872
1931,1983,1969,1914,1902,1958,2005,1994,1927,1903,1949,1989,1965,1894,1871,1933,1979,1955,1884,1862,1918,1959,1939,1877,1866,1933,1981,1963,1891,1886,1936,1998,1955,1951,1876,1901,1934,1897,1883,2400,3456,4095,4095,4095,4095,4095,4095,3969,2890,2252,2105,2067,2030,1933,1872,1891,1906,1861,1781,1749,1808,1856,1840,1776,1751,1808,1857,1841,1774,1756,1825,1873,1858,1797,1789,1856,1909,1891,1829,1812,1878,1934,1890,1833,1813,1870,1909,1885,1808,1778,1827,1865,1839,1762,1747,1809,1856,1831,1763,1749,1815,1871,1850,1771,1755,1836,1890,1875,1816,1814,1890,1945,1935,1872,1863,1932,1978,1952,1884,1871,1933,1973,1941,1870,1846,1905,1962,1947,1874,1859,1920,1969,1949,1875,1862,1922,1965,1935,1872,1857,1920,1962,1930,1853,1835,1893,1939,1920,1855,1837,1898,1942,1920,1856,1840,1895,1938,1919,1845,1835,1901,1937,1907,1840,1824,1889,1936,1909,1837,1813,1895,1943,1923,1853,1834,1897,1934,1910,1841,1833,1903,1947,1923,1855,1842,1922,1946,1921,1854,1847,1917,1968,1961,1840,1841,1913,1957,1938,1870,1858,1928,1978,1955,1894,1883,1936,1982,1950,1874,1870,1939,1982,1954,1894,1891,1967,2013,1980,1904,1893,1969,2022,1990,1918,1907,1977,2017,1984,1905,1895,1958,1994,1968,1894,1881,1947,1985,1955,1889,1879,1939,1979,1951,1891,1889,1959,2001,1975,1904
1891,1957,1968,1913,1826,1781,2011,2748,3880,4095,4095,4095,4095,4095,4095,3203,2497,2190,2059,1951,1907,1927,1930,1873,1791,1778,1827,1858,1825,1755,1744,1808,1840,1808,1744,1747,1828,1875,1859,1799,1795,1860,1901,1872,1802,1803,1871,1911,1883,1815,1807,1872,1918,1895,1827,1814,1875,1906,1878,1805,1778,1854,1871,1840,1777,1776,1837,1872,1809,1775,1768,1839,1886,1869,1824,1830,1903,1934,1899,1883,1822,1918,1958,1924,1869,1877,1940,1974,1931,1863,1859,1929,1968,1931,1855,1835,1904,1948,1915,1845,1840,1904,1943,1911,1847,1845,1933,1971,1919,1839,1837,1907,1948,1917,1855,1847,1910,1938,1904,1840,1840,1915,1957,1925,1857,1856,1931,1968,1933,1871,1866,1931,1955,1919,1847,1853,1931,1968,1930,1861,1866,1936,1973,1936,1860,1852,1926,1963,1926,1858,1851,1920,1957,1921,1862,1869,1936,1964,1921,1849,1845,1907,1946,1909,1839,1841,1920,1966,1936,1872,1873,1938,1973,1943,1884,1883,1950,1975,1936,1869,1875,1953,1992,1947,1869,1860,1935,1979,1946,1874,1869,1927,1956,1921,1856,1857,1925,1962,1922,1856,1853,1925,1968,1926,1839,1806,1872,1925,1954,2213,2912,3991,4095,4095,4095,4095,3929,2925,2291,2058,2090,2099,2105,2000,1904,1873,1935,1952,1904,1831,1829,1887,1916,1875,1815,1825,1903,1936,1904,1846,1855,1935,1970,1927,1861,1872,1951,1989,1961
1897,1904,1979,2016,1984,1920,1936,2015,2056,2012,1936,1936,2000,2027,1978,1906,1901,1967,1999,1958,1889,1895,1964,1984,1942,1883,1898,1964,1983,1936,1865,1873,1953,1984,1940,1872,1873,1942,1973,1931,1861,1872,1934,1953,1911,1850,1858,1936,1969,1928,1861,1859,1927,1958,1927,1872,1883,1951,1971,1932,1872,1877,1943,1969,1931,1863,1874,1940,1968,1922,1857,1861,1922,1949,1917,1858,1857,1920,1947,1905,1851,1855,1913,1939,1898,1839,1847,1907,1935,1891,1830,1842,1910,1936,1893,1826,1840,1914,1941,1902,1832,1839,1909,1923,1910,1856,1873,1959,1963,1919,1824,1862,1953,1983,1939,1873,1887,1949,1983,1942,1878,1888,1961,1977,1926,1863,1877,1937,1959,1918,1862,1879,1943,1966,1927,1872,1885,1955,1985,1938,1879,1903,1957,1947,1875,1817,1849,2256,3127,4095,4095,4095,4095,4095,4095,3836,2826,2310,2128,2057,1977,1954,1973,1954,1883,1805,1807,1871,1883,1832,1762,1776,1855,1879,1840,1779,1793,1862,1888,1855,1802,1818,1895,1918,1872,1814,1835,1906,1927,1887,1829,1849,1920,1937,1890,1819,1829,1901,1917,1868,1801,1812,1883,1904,1855,1779,1791,1861,1883,1840,1789,1817,1899,1919,1875,1821,1842,1917,1934,1886,1839,1859,1936,1966,1919,1860,1879,1949,1973,1915,1855,1874,1958,1969,1920,1851,1865,1937,1954,1904,1843,1859,1929,1940,1890,1835,1854,1925,1938
1899,1840,1861,1930,1938,1887,1833,1860,1933,1947,1903,1847,1867,1947,1968,1914,1854,1869,1936,1953,1899,1840,1857,1934,1961,1913,1852,1868,1932,1946,1899,1840,1862,1936,1958,1904,1841,1859,1934,1949,1903,1852,1877,1949,1967,1910,1850,1872,1951,1971,1922,1869,1889,1957,1975,1927,1874,1905,1969,1989,1936,1888,1914,1979,1999,1951,1895,1917,1984,2000,1952,1899,1915,1981,1990,1941,1890,1920,1989,2000,1943,1895,1910,1975,1989,1946,1893,1907,1977,1999,1953,1904,1909,1936,1914,1841,1790,2219,3219,4095,4095,4095,4095,4095,4095,4095,3024,2362,2129,2076,1999,1911,1897,1935,1931,1872,1797,1822,1862,1873,1824,1776,1799,1845,1874,1823,1771,1803,1878,1904,1847,1790,1815,1890,1905,1859,1803,1829,1909,1926,1867,1779,1837,1911,1923,1869,1808,1843,1904,1904,1840,1777,1795,1854,1862,1808,1749,1776,1856,1877,1830,1776,1803,1877,1904,1869,1824,1865,1936,1945,1893,1841,1875,1956,1981,1929,1872,1907,1986,2000,1946,1898,1914,1974,1979,1922,1859,1888,1963,1972,1921,1867,1899,1962,1963,1904,1846,1887,1966,1974,1910,1855,1881,1945,1953,1895,1840,1866,1936,1950,1897,1845,1878,1945,1951,1893,1838,1874,1951,1968,1904,1840,1861,1934,1950,1897,1840,1867,1935,1951,1900,1850,1881,1952,1963,1899,1840,1871,1936,1934,1872,1819,1853,1926,1947,1890,1840,1869,1936
1949,1893,1840,1867,1938,1954,1902,1853,1878,1943,1962,1898,1842,1875,1937,1957,1899,1849,1877,1951,1971,1920,1874,1915,1986,1991,1951,1899,1936,2003,2026,2042,1945,1962,2017,2011,1949,1895,1930,1986,1994,1927,1875,1902,1970,1989,1933,1875,1903,1963,1968,1911,1866,1902,1968,1982,1930,1878,1913,1985,1977,1871,1782,1785,1840,2228,3092,4095,4095,4095,4095,4095,4095,4095,3121,2423,2064,1936,1954,1993,1962,1858,1783,1794,1851,1842,1776,1728,1767,1839,1837,1776,1734,1777,1850,1859,1797,1753,1792,1867,1869,1808,1755,1805,1879,1891,1834,1778,1815,1887,1892,1827,1777,1808,1870,1862,1793,1731,1755,1814,1815,1751,1706,1737,1799,1801,1737,1689,1731,1809,1824,1772,1734,1791,1868,1886,1834,1797,1845,1920,1927,1872,1833,1872,1941,1948,1889,1840,1882,1950,1959,1904,1847,1879,1958,1957,1895,1856,1894,1962,1962,1895,1849,1883,1968,1968,1885,1852,1887,1962,1964,1890,1820,1877,1927,1934,1871,1826,1865,1936,1943,1858,1813,1856,1919,1922,1869,1834,1867,1931,1937,1881,1829,1867,1936,1944,1889,1849,1883,1950,1951,1891,1853,1904,1973,1967,1891,1839,1873,1937,1945,1883,1841,1875,1936,1939,1874,1835,1874,1941,1943,1887,1840,1881,1940,1937,1882,1840,1885,1949,1942,1889,1859,1904,1966,1961,1902,1859,1909,1980,1979,1915,1873,1926,2001,2002,1936,1891,1936
1999,2000,1941,1901,1939,2007,2011,1939,1886,1921,1982,1974,1905,1858,1898,1965,1962,1897,1857,1907,1975,1974,1911,1873,1929,1996,1994,1925,1879,1918,1977,1956,1859,1803,1819,1915,2360,3182,4095,4095,4095,4095,4095,4095,3268,2570,2235,2082,1998,1985,1989,1946,1854,1806,1839,1890,1879,1813,1776,1849,1899,1894,1837,1801,1846,1906,1905,1847,1817,1866,1923,1920,1856,1825,1868,1931,1933,1873,1840,1875,1936,1927,1859,1822,1872,1934,1921,1855,1819,1859,1918,1909,1841,1805,1847,1911,1907,1838,1804,1859,1923,1917,1852,1826,1884,1952,1941,1873,1840,1881,1935,1937,1879,1850,1899,1957,1951,1883,1842,1887,1951,1943,1875,1840,1883,1948,1942,1876,1845,1904,1968,1963,1903,1872,1920,1969,1953,1885,1850,1897,1959,1957,1889,1850,1904,1973,1967,1896,1856,1902,1951,1935,1866,1827,1869,1925,1920,1860,1828,1875,1931,1924,1857,1826,1873,1935,1926,1863,1837,1882,1933,1926,1860,1819,1862,1923,1921,1851,1820,1872,1936,1927,1859,1835,1891,1948,1938,1875,1840,1887,1954,1962,1895,1851,1891,1947,1937,1879,1857,1906,1963,1946,1857,1819,1872,1932,1922,1858,1838,1889,1950,1936,1872,1837,1881,1943,1936,1871,1841,1893,1952,1927,1821,1769,1818,1883,2112,2720,3702,4095,4095,4095,4095,4095,3442,2627,2210,2042,2000,2026,2032,1969,1867,1809,1847,1890,1862,1792,1767
1822,1877,1870,1805,1785,1841,1903,1895,1835,1808,1863,1931,1925,1861,1834,1891,1955,1959,1904,1873,1929,1983,1967,1893,1857,1909,1967,1956,1885,1849,1904,1951,1936,1870,1840,1879,1932,1915,1842,1815,1873,1927,1919,1856,1846,1904,1953,1939,1875,1855,1910,1968,1962,1901,1872,1927,1984,1971,1906,1882,1939,1989,1972,1901,1866,1917,1966,1950,1877,1856,1914,1952,1945,1877,1861,1926,1981,1961,1890,1863,1919,1968,1954,1886,1867,1920,2017,1952,1884,1850,1888,1963,1942,1936,1855,1898,1938,1926,1855,1835,1889,1936,1920,1857,1848,1901,1946,1926,1856,1833,1888,1943,1935,1868,1842,1901,1954,1936,1863,1845,1904,1956,1938,1871,1847,1901,1941,1920,1854,1835,1895,1952,1936,1873,1853,1907,1959,1941,1881,1879,1949,2000,1970,1897,1862,1911,1963,1942,1878,1862,1920,1973,1947,1875,1863,1922,1968,1938,1871,1847,1907,1957,1934,1858,1835,1893,1946,1932,1866,1851,1899,1919,1870,1785,1756,2150,3049,4095,4095,4095,4095,4095,4095,4011,2932,2335,2122,2032,1943,1887,1904,1913,1865,1778,1746,1797,1841,1826,1757,1741,1795,1843,1823,1758,1744,1809,1857,1834,1769,1762,1824,1873,1863,1802,1791,1856,1904,1885,1811,1793,1855,1904,1889,1823,1798,1845,1887,1858,1779,1746,1802,1842,1822,1755,1735,1797,1843,1817,1753,1744,1810,1861,1840,1792,1791,1872,1931,1917,1852
1842,1907,1965,1945,1876,1860,1920,1974,1962,1898,1876,1936,1984,1961,1888,1867,1915,1952,1927,1863,1845,1902,1939,1926,1860,1843,1904,1943,1920,1854,1840,1900,1937,1917,1852,1834,1879,1920,1899,1829,1821,1891,1936,1915,1851,1840,1898,1936,1915,1854,1840,1904,1941,1921,1857,1838,1895,1942,1925,1859,1842,1893,1933,1906,1840,1831,1898,1937,1918,1851,1835,1898,1935,1908,1840,1831,1904,1954,1934,1861,1840,1896,1937,1920,1856,1843,1910,1955,1936,1872,1861,1911,1957,1938,1886,1885,1958,1999,1970,1897,1879,1942,1993,1971,1905,1889,1937,1968,1931,1866,1858,1925,1966,1933,1870,1854,1922,1969,1946,1873,1863,1933,1975,1946,1875,1873,1918,1922,1876,1776,1872,2559,3705,4095,4095,4095,4095,4095,4095,3341,2487,2114,2000,1909,1730,1447,999,560,176,0,0,0,0,0,0,0,0,0,0,0,0,0,0,0,0,0,0,0,0,0,0,0,0,0,0,0,0,0,0,0,0,0,0,0,0,0,238,491,641,672,738,899,1004,981,892,896,1069,1200,1182,1079,1047,1105,1136,1089,1003,1015,1150,1242,1236,1152,1119,1169,1213,1185,1094,1054,1099,1136,1117,1042,1013,1075,1123,1117,1053,1029,1084,1130,1109,1044,1021,1083,1126,1110,1046,1030,1083,1122,1104,1038,1015,1086,1129,1106,1046,1029,1084,1123,1104
1031,1019,1103,1165,1152,1089,1075,1129,1175,1165,1104,1094,1150,1166,1193,1139,1149,1232,1299,1303,1251,1256,1328,1387,1389,1338,1342,1416,1471,1465,1408,1403,1459,1509,1499,1447,1440,1506,1553,1534,1475,1467,1546,1601,1598,1546,1552,1636,1699,1703,1648,1626,1680,1718,1696,1627,1606,1663,1693,1648,1558,1531,1593,1632,1614,1504,1410,1323,1178,1019,875,832,896,945,918,832,799,827,816,734,602,581,1091,2065,2978,3632,4058,3870,3154,2297,1486,1168,1250,1349,1313,1174,1090,1119,1152,1117,1030,1007,1082,1139,1143,1102,1117,1215,1297,1307,1267,1271,1339,1398,1424,1408,1426,1491,1549,1552,1514,1517,1570,1602,1584,1529,1487,1610,1600,1584,1520,1498,1534,1555,1520,1458,1430,1466,1489,1469,1415,1392,1411,1434,1422,1365,1389,1393,1443,1407,1394,1377,1412,1443,1430,1395,1385,1414,1443,1405,1391,1367,1402,1425,1406,1363,1342,1365,1386,1359,1315,1291,1290,1334,1319,1280,1258,1277,1291,1267,1221,1201,1235,1263,1248,1211,1200,1229,1239,1219,1171,1152,1173,1185,1163,1115,1095,1118,1133,1106,1059,1040,1064,1075,1050,991,960,977,989,964,912,882,890,897,867,815,775,789,789,755,705,688,705,713,678,627,597,615,624,587,524,481,490,493,458,399,365,368,376,344,283,244,257,250,210,158,134,144,144
112,51,16,26,48,19,0,0,0,0,0,0,0,0,0,0,0,0,0,0,0,0,0,0,0,0,0,0,0,0,0,0,0,0,0,0,0,0,0,0,0,0,919,1987,2301,1811,861,0,0,0,0,0,0,0,0,0,0,0,0,0,0,0,0,0,0,0,0,0,0,0,0,0,0,0,0,0,0,0,0,0,0,0,0,0,0,0,0,0,0,0,0,0,0,0,0,0,0,0,0,0,0,0,0,0,0,0,0,0,0,0,0,0,0,0,0,0,0,0,0,0,0,0,0,0,0,0,0,0,0,0,0,0,0,0,0,0,0,0,0,0,0,0,0,0,0,0,0,0,0,0,0,0,0,0,0,0,0,0,0,0,0,0,0,0,0,0,0,0,0,0,0,0,0,0,0,0,0,0,61,102,105,86,112,177,224,228,213,242,306,351,364,349,363,432,490,499,490,506,566,613,626,631,657,713,762,763,749,763,829,874,880,870,887,941,982,992,977,991,1063,1104,1111,1099,1119,1178,1224,1232,1213,1230,1293,1341,1347,1328,1312,1337,1360,1345,1397,1916,2866,4095,4095,4095,4095,4095,3605,2608,2064,1945,1975
1968,1891,1804,1774,1802,1829,1818,1784,1782,1836,1881,1889,1874,1890,1947,1991,1999,1979,1999,2070,2125,2126,2109,2128,2185,2225,2222,2201,2224,2288,2333,2330,2310,2325,2376,2405,2395,2368,2380,2435,2465,2459,2431,2434,2480,2503,2495,2473,2495,2553,2601,2593,2573,2585,2635,2675,2671,2654,2672,2731,2770,2768,2741,2762,2823,2862,2854,2833,2847,2909,2946,2934,2903,2910,2960,2989,2985,2955,2963,3014,3041,3027,2992,2998,3056,3104,3095,3061,3083,3136,3161,3147,3119,3121,3172,3204,3185,3141,3150,3200,3229,3211,3177,3189,3247,3276,3255,3216,3229,3289,3323,3301,3264,3276,3337,3376,3370,3326,3329,3383,3413,3399,3364,3376,3431,3457,3439,3394,3412,3470,3492,3465,3428,3443,3505,3536,3515,3467,3470,3525,3559,3539,3499,3518,3579,3607,3568,3521,3538,3613,3649,3629,3574,3597,3667,3696,3665,3628,3649,3728,3776,3739,3678,3693,3770,3799,3779,3747,3769,3839,3851,3793,3727,3731,3808,3839,3803,3734,3736,3791,3797,3771,3734,3755,3824,3841,3792,3727,3733,3795,3822,3787,3735,3747,3822,3851,3820,3735,3681,3677,3647,3557,3999,4095,4095,4095,4095,4095,4095,4095,4095,4095,4095,4095,4095,4095,4095,4095,4095,4095,3920,3591,3438,3442,3521,3563,3523,3471,3478,3530,3547,3507,3467,3484,3543,3571,3538,3492,3497,3545,3561,3523,3491,3503,3543,3556,3507,3444,3445
3491,3504,3456,3399,3389,3427,3440,3392,3343,3344,3387,3397,3354,3298,3305,3351,3368,3334,3295,3310,3376,3411,3378,3335,3344,3408,3441,3420,3373,3376,3433,3456,3420,3370,3371,3418,3438,3403,3362,3369,3413,3424,3379,3327,3323,3349,3353,3308,3261,3264,3298,3310,3271,3218,3222,3265,3279,3232,3177,3178,3219,3231,3191,3137,3140,3181,3197,3159,3118,3124,3171,3182,3146,3103,3097,3138,3152,3120,3063,3069,3119,3117,3065,3021,3033,3085,3102,3063,3011,3013,3056,3083,3041,2990,2989,3035,3046,3008,2965,2975,3024,3035,3003,2962,2965,3002,2999,2960,2913,2927,2977,2995,2958,2916,2926,2963,2973,2941,2903,2917,2963,2978,2944,2898,2902,2941,2945,2912,2877,2839,2919,2929,2883,2855,2878,2923,2929,2896,2861,2867,2917,2933,2905,2867,2878,2915,2922,2886,2825,2875,2918,2923,2939,2839,2841,2888,2902,2867,2832,2834,2878,2887,2854,2803,2818,2859,2874,2834,2789,2794,2831,2841,2815,2775,2797,2832,2839,2802,2756,2717,2701,2667,2559,2704,3570,4095,4095,4095,4095,4095,4095,4095,4095,4095,4095,4004,3228,2755,2573,2576,2630,2632,2575,2506,2511,2551,2559,2523,2480,2493,2538,2544,2507,2475,2494,2541,2553,2517,2482,2506,2555,2571,2531,2496,2512,2557,2570,2523,2483,2496,2534,2541,2497,2450,2459,2486,2487,2447,2402,2415,2451,2459,2425,2385,2405,2448,2459,2431,2405
2432,2480,2496,2466,2443,2474,2532,2557,2535,2509,2532,2582,2599,2559,2527,2593,2599,2611,2574,2537,2544,2591,2574,2558,2525,2544,2586,2590,2548,2515,2534,2577,2589,2546,2512,2523,2559,2559,2527,2490,2503,2543,2551,2517,2482,2497,2533,2547,2512,2483,2502,2550,2550,2512,2480,2496,2540,2543,2496,2459,2475,2530,2543,2502,2467,2480,2523,2526,2484,2447,2467,2506,2512,2475,2439,2453,2497,2511,2465,2423,2439,2480,2487,2453,2428,2445,2481,2486,2447,2414,2427,2467,2473,2432,2406,2427,2465,2467,2426,2390,2407,2448,2450,2418,2389,2410,2445,2448,2410,2369,2384,2430,2439,2401,2369,2384,2425,2430,2393,2365,2384,2431,2433,2397,2368,2390,2431,2432,2394,2361,2382,2430,2441,2403,2367,2385,2427,2431,2389,2363,2384,2431,2438,2399,2353,2369,2403,2407,2377,2359,2384,2421,2416,2381,2345,2367,2413,2416,2374,2346,2358,2386,2384,2349,2317,2327,2368,2373,2335,2304,2327,2370,2372,2335,2305,2320,2359,2354,2288,2192,2194,2176,2128,2428,3335,4095,4095,4095,4095,4095,4095,4095,4095,3505,2779,2403,2309,2289,2242,2192,2176,2190,2173,2116,2078,2096,2128,2128,2091,2063,2082,2125,2130,2098,2071,2094,2129,2137,2099,2069,2095,2134,2141,2102,2073,2097,2130,2133,2094,2063,2086,2122,2122,2070,2028,2037,2068,2066,2017,1983,2000,2035,2031,1984,1958,1989,2032,2035,1997
1971,2005,2058,2071,2036,2017,2054,2100,2111,2073,2043,2082,2129,2139,2099,2071,2098,2140,2144,2102,2079,2097,2135,2132,2096,2064,2081,2121,2119,2073,2033,2054,2092,2095,2046,2015,2032,2078,2078,2032,2004,2025,2064,2062,2018,1986,2010,2058,2058,1970,1974,1999,2035,2042,2002,1973,1999,2032,2032,1994,1967,1985,2023,2019,1970,1953,1937,2002,2004,1968,1938,1967,2010,2001,1952,1931,1958,2000,1999,1960,1929,1959,2000,2006,1972,1949,1973,2011,2007,1959,1933,1961,2000,1999,1954,1930,1965,2001,2005,1971,1946,1979,2017,2015,1967,1933,1966,2005,2010,1983,1966,2000,2043,2041,1989,1957,1990,2038,2037,1992,1961,1984,2019,2023,1982,1961,1993,2032,2027,1978,1951,1983,2016,2014,1969,1943,1973,2006,2002,1966,1937,1965,1998,1990,1957,1934,1957,1959,1905,1826,1778,1797,2141,2935,4095,4095,4095,4095,4095,4095,3965,2998,2457,2218,2099,2031,2017,2000,1961,1885,1840,1858,1885,1870,1821,1794,1825,1869,1871,1830,1810,1851,1889,1888,1847,1837,1871,1914,1905,1871,1852,1882,1919,1921,1876,1862,1888,1921,1917,1874,1861,1895,1908,1902,1851,1821,1849,1878,1871,1807,1794,1831,1871,1868,1818,1799,1840,1878,1873,1845,1829,1863,1904,1905,1868,1849,1885,1930,1936,1903,1878,1911,1951,1961,1921,1903,1927,1965,1957,1919,1897,1927,1962,1952,1911,1895,1926,1964,1962
1920,1904,1933,1964,1952,1909,1893,1931,1963,1955,1909,1888,1921,1953,1942,1891,1863,1895,1932,1927,1891,1870,1901,1925,1917,1872,1851,1883,1911,1903,1856,1834,1871,1910,1904,1861,1846,1877,1913,1907,1870,1853,1885,1921,1914,1871,1856,1899,1935,1922,1875,1858,1897,1933,1926,1890,1875,1910,1941,1936,1902,1883,1918,1948,1943,1904,1889,1933,1963,1954,1911,1895,1931,1973,1978,1936,1918,1958,1987,1984,1950,1936,1970,1999,1986,1955,1923,1952,1998,1991,1941,1922,1953,2001,1978,1938,1927,1961,1979,1965,1915,1903,1946,1984,1977,1939,1926,1979,1987,1984,1940,1890,1869,1872,1808,1823,2384,3507,4095,4095,4095,4095,4095,4095,4095,3178,2449,2138,2055,2011,1946,1904,1904,1902,1863,1798,1764,1796,1829,1820,1782,1767,1805,1839,1831,1789,1778,1826,1861,1854,1815,1808,1847,1881,1874,1840,1829,1874,1905,1893,1851,1830,1862,1888,1871,1818,1799,1831,1851,1835,1786,1771,1804,1824,1809,1769,1759,1798,1830,1829,1788,1783,1834,1872,1872,1840,1840,1891,1926,1918,1872,1865,1913,1951,1947,1904,1891,1925,1949,1936,1894,1882,1920,1955,1947,1905,1894,1927,1947,1933,1889,1874,1913,1983,1927,1882,1867,1906,1939,1930,1886,1871,1904,1929,1923,1875,1866,1906,1930,1911,1869,1859,1904,1930,1922,1875,1872,1901,1937,1935,1877,1870,1910,1938,1927,1886,1877,1917,1945
1943,1891,1877,1911,1938,1927,1883,1873,1915,1943,1931,1885,1872,1907,1935,1923,1876,1872,1907,1936,1920,1882,1883,1931,1954,1933,1894,1892,1933,1957,1938,1899,1893,1935,1962,1949,1907,1891,1923,1952,1937,1906,1911,1964,1986,1966,1921,1911,1963,2000,1990,1946,1924,1957,1984,1969,1935,1922,1959,1983,1965,1913,1904,1941,1967,1945,1899,1888,1923,1948,1936,1898,1891,1925,1947,1933,1891,1886,1910,1886,1820,1731,1667,1983,2873,4095,4095,4095,4095,4095,4095,4095,3636,2763,2256,2034,1946,1920,1931,1911,1856,1783,1761,1791,1809,1789,1744,1731,1776,1805,1786,1742,1733,1781,1809,1796,1753,1750,1794,1829,1814,1776,1772,1810,1834,1831,1772,1766,1805,1825,1840,1747,1738,1776,1792,1757,1706,1691,1732,1746,1729,1686,1680,1726,1749,1734,1690,1686,1737,1776,1766,1728,1738,1797,1839,1830,1794,1795,1853,1887,1879,1847,1851,1903,1925,1899,1849,1840,1877,1892,1872,1826,1824,1877,1909,1893,1851,1840,1877,1897,1874,1837,1833,1870,1888,1870,1826,1819,1863,1879,1856,1814,1811,1858,1882,1866,1822,1818,1866,1892,1870,1828,1823,1862,1883,1858,1809,1807,1843,1872,1856,1819,1817,1856,1875,1855,1822,1821,1867,1888,1870,1824,1820,1863,1885,1870,1826,1824,1867,1887,1863,1825,1824,1863,1886,1868,1828,1826,1863,1879,1860,1823,1827,1871,1886,1862,1826,1834,1881
1904,1882,1839,1840,1889,1918,1904,1855,1846,1885,1904,1883,1841,1843,1884,1904,1877,1833,1811,1872,1901,1872,1831,1808,1867,1889,1863,1821,1823,1872,1894,1866,1819,1823,1863,1875,1817,1731,1710,1712,1781,2256,3158,4095,4095,4095,4095,4095,4095,3405,2624,2214,2037,1990,1985,1955,1882,1808,1779,1808,1813,1780,1731,1738,1783,1808,1781,1744,1749,1797,1819,1797,1757,1760,1808,1840,1813,1771,1770,1818,1840,1814,1774,1776,1821,1840,1813,1770,1765,1806,1825,1803,1752,1746,1785,1805,1776,1735,1733,1776,1790,1766,1728,1741,1786,1803,1782,1744,1755,1806,1831,1814,1782,1789,1832,1856,1834,1793,1805,1851,1872,1842,1802,1808,1853,1872,1845,1798,1806,1857,1881,1854,1808,1878,1845,1889,1855,1808,1779,1838,1870,1842,1807,1814,1859,1871,1839,1808,1807,1847,1867,1840,1794,1808,1851,1859,1894,1774,1782,1819,1840,1803,1772,1783,1827,1853,1829,1781,1784,1829,1845,1813,1774,1779,1819,1830,1804,1766,1778,1827,1849,1799,1760,1766,1810,1829,1801,1744,1744,1787,1811,1793,1756,1760,1799,1811,1781,1746,1774,1829,1838,1804,1760,1769,1809,1821,1777,1723,1733,1792,1818,1791,1743,1742,1787,1814,1791,1742,1734,1776,1794,1775,1744,1762,1782,1770,1712,1665,1676,1727,1742,1707,1659,1675,1729,1744,1718,1680,1680,1687,1659,1616,1578,1613,2065,2949,4095,4095,4095
4095,4095,4095,3106,2262,1931,1861,1815,1744,1690,1664,1627,1569,1511,1513,1553,1565,1513,1458,1462,1518,1545,1507,1470,1475,1526,1559,1549,1515,1523,1557,1558,1522,1488,1506,1546,1552,1550,1519,1534,1580,1573,1533,1499,1521,1570,1582,1548,1488,1482,1503,1535,1526,1494,1493,1523,1532,1491,1456,1472,1517,1542,1517,1483,1499,1555,1586,1557,1515,1527,1589,1618,1589,1517,1518,1573,1595,1565,1509,1499,1535,1558,1531,1504,1518,1557,1567,1521,1481,1495,1552,1571,1535,1488,1492,1525,1527,1499,1471,1487,1526,1533,1503,1472,1485,1535,1555,1519,1467,1469,1497,1502,1473,1445,1458,1485,1480,1441,1405,1418,1463,1483,1450,1407,1399,1429,1446,1424,1402,1424,1456,1438,1402,1371,1391,1434,1442,1409,1373,1374,1399,1397,1360,1328,1344,1391,1406,1373,1339,1351,1382,1376,1328,1293,1302,1349,1366,1337,1285,1286,1333,1348,1346,1293,1298,1334,1349,1328,1296,1291,1318,1317,1286,1273,1295,1311,1297,1255,1216,1226,1254,1257,1215,1170,1172,1209,1219,1189,1125,1141,1182,1182,1158,1136,1141,1163,1158,1102,1019,1002,1053,1089,1392,2208,3216,4095,4095,4095,4095,3419,2354,1565,1249,1194,1200,1179,1100,986,902,878,894,880,846,797,790,818,821,791,759,768,801,806,781,755,771,803,812,779,753,771,803,802,768,733,747,786,792,751,704
707,737,735,688,646,645,673,669,621,576,576,607,607,576,544,559,592,597,569,538,560,602,619,592,565,587,623,626,593,567,590,631,637,597,563,574,606,606,566,528,529,558,560,528,491,498,539,546,507,469,484,528,531,490,455,474,526,529,486,448,464,503,524,484,454,471,509,525,487,464,484,531,547,502,475,490,526,528,494,464,487,530,537,505,479,498,551,561,528,509,531,576,583,557,530,551,597,610,587,561,588,625,640,615,589,613,653,659,631,614,645,698,717,690,669,694,745,763,749,734,766,813,820,789,765,789,843,861,834,810,821,855,876,851,832,863,912,919,884,863,893,943,951,927,907,941,983,1001,976,928,927,976,1034,1107,1569,2426,3329,4095,4095,4095,3342,2507,1767,1406,1362,1402,1399,1337,1235,1171,1179,1211,1213,1179,1152,1178,1224,1232,1207,1191,1232,1283,1296,1280,1264,1296,1355,1373,1351,1339,1365,1419,1435,1410,1397,1439,1488,1511,1488,1471,1497,1552,1558,1523,1503,1521,1568,1582,1549,1525,1562,1606,1615,1621,1520,1597,1631,1671,1605,1584,1616,1655,1663,1632,1615,1648,1693,1702,1669,1647,1680,1712,1733,1698,1675,1709,1744,1750,1712,1697,1729,1776,1787,1754,1722,1750,1791,1798,1761
1738,1777,1819,1827,1798,1786,1819,1856,1857,1826,1808,1831,1861,1857,1821,1805,1840,1875,1883,1847,1825,1856,1898,1903,1864,1839,1859,1898,1903,1872,1854,1878,1911,1910,1875,1862,1894,1936,1935,1898,1878,1916,1953,1968,1937,1921,1952,1987,1995,1974,1965,2000,2032,2023,1984,1967,1995,2033,2034,1998,1967,1986,2015,2019,1986,1963,1982,2011,2016,1985,1970,1999,2030,2032,2000,1984,2015,2045,2038,2000,1984,1998,1999,2001,2021,2095,2486,3328,4095,4095,4095,4095,4095,4095,3639,2719,2295,2209,2202,2156,2093,2079,2079,2047,2000,2027,2000,2034,2036,2000,1984,2015,2064,2069,2032,2017,2055,2095,2096,2066,2059,2091,2139,2149,2121,2107,2142,2176,2177,2147,2129,2167,2201,2198,2165,2143,2173,2202,2196,2157,2132,2160,2179,2176,2144,2125,2151,2182,2178,2144,2128,2161,2195,2197,2169,2153,2174,2198,2192,2157,2134,2171,2205,2207,2167,2147,2178,2217,2210,2167,2148,2178,2206,2198,2162,2146,2176,2204,2203,2177,2166,2202,2228,2221,2182,2165,2201,2237,2225,2185,2170,2208,2243,2245,2207,2193,2230,2259,2252,2212,2194,2226,2257,2253,2218,2197,2235,2273,2265,2228,2218,2254,2278,2275,2240,2224,2251,2285,2278,2231,2226,2262,2295,2286,2251,2239,2273,2310,2305,2267,2253,2288,2314,2304,2267,2252,2287,2342,2331,2338,2295,2323,2351,2347,2313,2290,2336,2368,2357
2318,2297,2325,2357,2352,2318,2297,2318,2352,2343,2302,2284,2311,2341,2335,2303,2288,2321,2352,2350,2316,2299,2331,2363,2353,2305,2291,2320,2320,2291,2283,2308,2625,3504,4095,4095,4095,4095,4095,4095,4095,4095,3443,2790,2449,2320,2291,2320,2326,2289,2225,2192,2215,2235,2224,2188,2177,2211,2245,2239,2202,2192,2230,2265,2261,2224,2216,2256,2290,2285,2245,2234,2266,2302,2299,2263,2253,2290,2320,2309,2266,2241,2270,2293,2282,2230,2218,2242,2263,2245,2201,2186,2223,2250,2243,2205,2192,2235,2269,2265,2237,2227,2267,2299,2291,2256,2245,2288,2320,2317,2255,2260,2291,2317,2304,2265,2252,2283,2299,2281,2231,2221,2257,2281,2272,2231,2219,2258,2278,2267,2226,2205,2239,2265,2254,2214,2194,2226,2254,2241,2206,2192,2220,2245,2239,2197,2188,2217,2249,2231,2187,2167,2201,2224,2217,2177,2162,2193,2217,2205,2166,2160,2192,2224,2218,2176,2169,2205,2229,2223,2185,2171,2203,2229,2215,2173,2162,2195,2224,2221,2189,2177,2209,2229,2221,2183,2176,2215,2240,2226,2190,2176,2219,2243,2230,2192,2190,2226,2252,2241,2202,2192,2227,2256,2251,2220,2211,2255,2285,2263,2229,2234,2276,2301,2283,2240,2226,2265,2289,2273,2233,2224,2256,2273,2247,2203,2194,2229,2251,2235,2195,2191,2232,2256,2242,2205,2194,2239,2261,2247,2207,2192,2205,2197,2191,2174,2367,3133,4095
4095,4095,4095,4095,4095,4095,4095,3344,2688,2370,2258,2202,2176,2189,2181,2143,2083,2061,2081,2100,2090,2043,2038,2082,2111,2096,2058,2043,2089,2121,2114,2086,2087,2128,2154,2141,2110,2107,2144,2163,2172,2112,2112,2149,2171,2151,2107,2102,2135,2155,2114,2071,2064,2098,2118,2101,2059,2041,2076,2097,2085,2045,2042,2096,2128,2125,2094,2096,2142,2172,2154,2112,2103,2143,2170,2153,2125,2123,2155,2171,2158,2115,2106,2145,2164,2144,2111,2108,2153,2171,2155,2113,2109,2143,2163,2144,2096,2089,2126,2144,2123,2085,2078,2109,2123,2105,2071,2066,2106,2129,2115,2073,2065,2107,2128,2113,2077,2070,2103,2128,2114,2081,2075,2111,2128,2107,2064,2064,2106,2123,2107,2066,2067,2103,2123,2103,2064,2067,2106,2125,2110,2067,2064,2107,2122,2100,2065,2066,2109,2129,2110,2067,2067,2110,2131,2112,2078,2073,2110,2123,2109,2065,2072,2122,2145,2129,2095,2093,2135,2149,2128,2094,2094,2136,2158,2128,2095,2097,2141,2162,2141,2107,2107,2125,2159,2139,2101,2102,2140,2166,2154,2121,2128,2166,2181,2160,2122,2130,2176,2194,2176,2137,2128,2173,2199,2177,2133,2128,2163,2179,2153,2115,2117,2160,2174,2146,2113,2115,2155,2173,2151,2122,2127,2166,2191,2168,2135,2131,2139,2124,2091,2057,2224,2955,4095,4095,4095,4095,4095,4095,4095,4095,3280,2624,2302,2179,2134,2130,2139
2125,2071,2000,1986,2018,2030,2006,1974,1981,2022,2041,2031,2002,2005,2059,2078,2062,2026,2033,2083,2099,2081,2039,2046,2095,2112,2093,2059,2064,2107,2115,2085,2039,2041,2081,2096,2064,2019,2021,2055,2064,2032,1994,1999,2033,2047,2025,1991,2005,2064,2079,2062,2031,2047,2100,2127,2113,2093,2107,2159,2171,2150,2118,2122,2177,2194,2157,2132,2141,2178,2194,2161,2128,2129,2167,2181,2156,2115,2128,2165,2174,2143,2107,2112,2154,2170,2142,2109,2111,2149,2161,2135,2102,2106,2149,2160,2128,2093,2097,2135,2147,2125,2091,2096,2135,2157,2129,2093,2095,2131,2148,2118,2077,2079,2125,2143,2117,2075,2080,2118,2133,2107,2073,2084,2126,2145,2112,2083,2095,2133,2151,2123,2085,2095,2135,2149,2123,2096,2106,2145,2160,2129,2096,2101,2134,2155,2128,2098,2110,2145,2157,2128,2091,2097,2133,2153,2131,2110,2133,2180,2194,2164,2125,2135,2189,2213,2190,2147,2157,2196,2209,2178,2145,2158,2193,2193,2159,2114,2130,2175,2185,2153,2115,2127,2166,2177,2149,2115,2163,2210,2185,2165,2128,2140,2176,2151,2097,2053,2090,2189,2555,3329,4095,4095,4095,4095,4095,4095,4071,3145,2598,2345,2261,2224,2246,2217,2154,2095,2094,2128,2129,2100,2062,2071,2112,2123,2100,2076,2097,2135,2154,2128,2097,2110,2155,2171,2145,2113,2128,2169,2182,2161,2131,2147,2181,2193,2163,2132,2144
2176,2178,2138,2096,2111,2147,2150,2112,2065,2077,2118,2130,2098,2064,2073,2110,2121,2091,2058,2079,2122,2131,2107,2083,2106,2142,2142,2112,2082,2096,2131,2141,2103,2066,2081,2127,2141,2109,2070,2080,2121,2128,2096,2064,2074,2112,2128,2096,2064,2077,2116,2128,2091,2057,2073,2115,2128,2096,2064,2077,2113,2118,2078,2034,2047,2089,2098,2067,2032,2060,2097,2098,2061,2022,2034,2085,2093,2055,2016,2035,2083,2090,2057,2019,2033,2079,2086,2047,2019,2035,2083,2095,2058,2019,2032,2078,2082,2047,2022,2032,2081,2067,2061,2020,2038,2079,2087,2059,2029,2039,2085,2096,2064,2022,2043,2087,2096,2069,2033,2060,2096,2112,2082,2047,2071,2109,2114,2081,2045,2070,2117,2128,2096,2064,2081,2114,2126,2098,2075,2098,2131,2128,2091,2063,2086,2129,2128,2084,2041,2059,2096,2110,2075,2034,2065,2107,2114,2080,2045,2066,2099,2105,2073,2043,2069,2106,2112,2055,1985,2007,2077,2174,2643,3606,4095,4095,4095,4095,4095,4095,4095,3159,2480,2179,2133,2160,2138,2068,1999,1990,2013,2007,1968,1936,1959,2001,2011,1979,1951,1971,2014,2015,1974,1950,1975,2030,2039,2007,1984,2013,2059,2061,2026,2000,2028,2074,2077,2032,1968,2032,2069,2071,2032,2000,2019,2053,2053,2005,1971,1991,2027,2032,1984,1961,1984,2015,2021,1987,1991,1983,2035,2042,2009,1999,2029,2070,2074,2034,2011
2045,2085,2086,2043,2015,2039,2077,2077,2033,2003,2025,2064,2065,2023,1995,2023,2064,2064,2015,1989,2018,2062,2064,2028,1998,2023,2061,2062,2016,1986,2005,2037,2040,2003,1983,2005,2043,2054,2015,1986,2015,2058,2059,2013,1983,2014,2062,2064,2019,1989,2015,2056,2055,2013,1982,2000,2042,2045,2007,1984,2011,2062,2063,2017,1993,2025,2067,2069,2027,2000,2032,2071,2080,2032,2011,2037,2082,2087,2046,2026,2058,2093,2100,2058,2023,2053,2090,2087,2041,2023,2064,2109,2107,2065,2033,2064,2099,2096,2047,2019,2055,2100,2102,2063,2032,2065,2101,2101,2067,2046,2086,2133,2132,2083,2064,2091,2131,2151,2122,2092,2112,2145,2139,2099,2092,2118,2227,2144,2101,2069,2097,2135,2134,2096,2066,2112,2133,2129,2079,2055,2090,2129,2133,2098,2075,2103,2147,2129,2045,2010,2067,2186,2667,3623,4095,4095,4095,4095,4095,4095,4095,3395,2651,2256,2133,2158,2179,2149,2070,2006,2010,2030,2025,1985,1962,1987,2026,2021,1984,1963,1994,2032,2032,1999,1982,2020,2064,2064,2022,2011,2058,2099,2101,2063,2035,2073,2118,2114,2074,2055,2090,2125,2114,2065,2032,2064,2098,2091,2031,2004,2033,2068,2062,2013,1990,2032,2071,2070,2032,2015,2063,2109,2111,2066,2041,2081,2124,2121,2084,2072,2112,2145,2134,2094,2069,2099,2130,2126,2077,2055,2096,2129,2128,2090,2065,2099,2133,2128,2085
2061,2087,2123,2122,2080,2055,2094,2114,2110,2063,2039,2083,2113,2112,2059,2021,2156,2117,2111,2067,2119,2093,2126,2117,2075,2053,2096,2124,2117,2075,2057,2093,2122,2112,2063,2032,2074,2112,2107,2062,2032,2068,2103,2096,2046,2029,2070,2110,2106,2061,2039,2079,2112,2103,2047,2031,2073,2109,2097,2045,2026,2069,2107,2105,2057,2032,2067,2096,2087,2039,2022,2055,2083,2069,2017,1998,2032,2070,2055,2006,1986,2031,2074,2069,2017,1997,2032,2068,2047,1995,1994,2043,2081,2065,2002,1979,2015,2046,2032,1982,1967,2000,2027,2006,1958,1936,1975,2001,1990,1942,1929,1979,2017,2007,1957,1935,1975,2017,2011,1963,1926,1936,1968,2000,2030,2373,3185,4095,4095,4095,4095,4095,4095,3434,2537,2150,2122,2160,2124,2014,1941,1952,1970,1950,1899,1875,1907,1934,1918,1868,1856,1904,1935,1935,1878,1862,1915,1959,1947,1957,1897,1943,1981,1970,1904,1920,1959,1995,1984,1933,1919,1968,2001,1993,1942,1930,1968,1993,1974,1923,1908,1950,1977,1959,1904,1883,1920,1948,1930,1873,1865,1920,1959,1946,1889,1869,1906,1937,1920,1866,1852,1901,1935,1920,1861,1844,1883,1906,1886,1827,1817,1866,1901,1885,1835,1822,1871,1904,1882,1829,1814,1861,1903,1887,1831,1821,1866,1899,1881,1823,1807,1846,1877,1861,1804,1786,1829,1862,1845,1792,1776,1827,1858,1842,1789,1765,1810,1845,1826
1776,1761,1808,1841,1835,1791,1785,1837,1870,1840,1783,1775,1826,1854,1837,1774,1758,1809,1847,1837,1776,1763,1809,1817,1829,1762,1761,1813,1867,1838,1807,1790,1838,1875,1874,1835,1815,1866,1890,1872,1814,1807,1865,1920,1879,1817,1794,1840,1874,1863,1808,1802,1847,1878,1852,1795,1789,1842,1874,1859,1812,1808,1861,1892,1861,1798,1771,1808,1874,1936,2082,2608,3466,4095,4095,4095,4095,4095,3234,2374,1962,1934,2021,2042,1969,1851,1799,1829,1851,1827,1766,1751,1801,1833,1813,1770,1776,1830,1865,1849,1798,1798,1856,1895,1875,1827,1826,1875,1910,1890,1846,1856,1918,1950,1933,1874,1871,1920,1950,1930,1870,1862,1909,1937,1913,1847,1840,1882,1900,1867,1802,1787,1831,1853,1823,1762,1754,1804,1830,1802,1741,1723,1771,1796,1773,1712,1701,1749,1774,1739,1679,1667,1719,1746,1714,1655,1655,1710,1743,1719,1662,1649,1702,1738,1717,1667,1665,1717,1747,1728,1673,1664,1715,1744,1726,1669,1667,1725,1749,1728,1673,1662,1714,1744,1715,1658,1655,1712,1734,1712,1655,1651,1700,1741,1715,1659,1649,1702,1735,1712,1655,1661,1717,1744,1713,1655,1648,1706,1734,1707,1648,1651,1711,1731,1701,1648,1648,1702,1731,1711,1658,1658,1715,1748,1727,1678,1686,1745,1773,1741,1682,1692,1759,1792,1758,1699,1699,1757,1781,1751,1703,1710,1761,1781,1743,1683,1693,1745,1770
1739,1680,1680,1735,1767,1743,1685,1689,1745,1778,1745,1683,1687,1742,1747,1709,1690,1748,2077,2798,3757,4095,4095,4095,4095,4095,3303,2360,1942,1887,1885,1823,1778,1782,1775,1717,1639,1621,1670,1695,1665,1607,1610,1676,1707,1680,1620,1631,1695,1727,1702,1664,1679,1742,1743,1740,1682,1701,1765,1802,1775,1719,1729,1791,1819,1789,1727,1727,1783,1807,1774,1712,1729,1758,1787,1753,1715,1693,1744,1762,1729,1671,1683,1744,1776,1750,1702,1714,1787,1819,1793,1733,1739,1796,1821,1791,1734,1744,1807,1831,1791,1729,1735,1795,1818,1778,1712,1715,1776,1806,1776,1714,1717,1773,1795,1765,1703,1711,1776,1808,1772,1712,1712,1765,1782,1744,1687,1697,1756,1783,1751,1697,1709,1766,1788,1747,1693,1713,1779,1805,1763,1707,1719,1786,1808,1767,1712,1721,1781,1809,1775,1714,1722,1777,1802,1770,1712,1730,1795,1823,1791,1731,1744,1808,1834,1798,1744,1758,1822,1841,1801,1743,1753,1811,1840,1807,1745,1766,1832,1863,1840,1791,1803,1867,1893,1853,1803,1828,1895,1919,1873,1809,1813,1895,1898,1861,1808,1809,1872,1894,1849,1797,1810,1869,1889,1850,1795,1809,1877,1885,1842,1776,1808,1873,1903,1859,1808,1824,1863,1861,1843,1831,2005,2693,3717,4095,4095,4095,4095,4095,4095,2945,2245,2033,2026,1988,1904,1869,1885,1872,1808,1739,1744,1798,1811,1766,1712,1735,1805
1829,1791,1741,1767,1837,1859,1823,1775,1789,1847,1873,1841,1789,1808,1872,1897,1853,1794,1809,1872,1899,1859,1799,1814,1864,1872,1825,1767,1787,1846,1861,1808,1748,1775,1840,1856,1807,1748,1766,1831,1860,1824,1775,1801,1872,1901,1858,1805,1822,1887,1915,1873,1821,1841,1903,1917,1871,1808,1827,1882,1901,1852,1795,1811,1872,1895,1847,1794,1811,1874,1894,1845,1786,1808,1872,1885,1831,1775,1797,1867,1883,1835,1771,1786,1851,1872,1826,1770,1792,1847,1870,1826,1770,1791,1857,1872,1825,1761,1781,1804,1849,1811,1767,1786,1808,1871,1807,1760,1789,1849,1850,1815,1751,1776,1840,1856,1813,1767,1797,1870,1883,1834,1776,1794,1859,1875,1821,1774,1793,1856,1867,1814,1761,1792,1858,1872,1822,1770,1792,1859,1887,1842,1791,1822,1885,1906,1865,1822,1856,1931,1955,1909,1861,1889,1967,1998,1965,1919,1948,2005,2029,1995,1957,1987,2054,2065,2010,1966,1995,2061,2077,2021,1966,1979,2037,2063,2010,1955,1974,2033,2055,2000,1951,1983,2057,2079,2023,1969,2000,2064,2077,2019,1938,1946,2027,2089,2193,2706,3677,4095,4095,4095,4095,4095,4095,3215,2474,2151,2129,2189,2170,2069,1971,1972,2021,2023,1963,1907,1937,2000,2011,1961,1914,1949,1984,2032,1979,1936,1967,2032,2053,2002,1959,1992,2063,2078,2027,1982,2018,2095,2102,2064,2007,2034,2100,2097,2054,1998,2027
2093,2096,2025,1974,2004,2077,2093,2032,1975,2016,2086,2099,2043,1998,2032,2112,2128,2079,2031,2068,2133,2147,2092,2042,2089,2147,2160,2100,2046,2086,2154,2167,2115,2063,2094,2153,2167,2122,2077,2112,2171,2189,2130,2091,2119,2187,2193,2134,2085,2117,2180,2190,2129,2081,2113,2167,2175,2126,2083,2116,2173,2178,2127,2083,2123,2176,2177,2122,2080,2112,2171,2182,2127,2082,2115,2173,2189,2141,2102,2131,2183,2183,2128,2089,2128,2192,2201,2138,2093,2127,2189,2198,2145,2096,2118,2175,2182,2127,2078,2110,2162,2167,2115,2069,2101,2156,2154,2096,2046,2083,2143,2159,2102,2061,2101,2160,2167,2109,2065,2112,2170,2175,2114,2064,2103,2174,2189,2181,2096,2125,2163,2176,2110,2064,2123,2192,2169,2101,2054,2091,2149,2150,2090,2032,2075,2132,2137,2075,2030,2076,2134,2143,2089,2043,2083,2138,2125,2035,1989,2071,2190,2433,3025,4010,4095,4095,4095,4095,4095,3956,2992,2441,2215,2160,2192,2213,2165,2066,1991,2011,2064,2064,1991,1943,1984,2043,2047,1993,1947,1991,2055,2064,2000,1968,2011,2074,2082,2021,1986,2036,2100,2105,2043,2005,2047,2111,2116,2061,2016,2054,2112,2111,2045,1999,2036,2091,2081,2002,1955,1990,2055,2059,1989,1943,1981,2032,2035,1981,1939,1986,2039,2032,1969,1937,1983,2035,2031,1963,1921,1968,2021,2015,1948,1905,1945,1997,1995,1932,1889
1936,1987,1987,1925,1884,1922,1953,1971,1936,1883,1926,1979,1977,1911,1875,1923,1963,1962,1904,1872,1915,1970,1968,1904,1863,1904,1949,1968,1898,1843,1882,1930,1931,1868,1833,1872,1922,1915,1841,1799,1841,1888,1883,1818,1790,1835,1885,1881,1812,1775,1815,1865,1858,1794,1757,1804,1858,1856,1795,1755,1798,1853,1847,1787,1755,1802,1857,1855,1799,1776,1826,1883,1886,1824,1787,1840,1893,1890,1834,1808,1866,1927,1930,1872,1846,1897,1955,1961,1898,1870,1918,1978,1982,1929,1901,1951,2009,2011,1950,1910,1951,2002,2005,1957,1940,1992,2035,2025,1959,1927,1977,2039,2031,1959,1923,1969,2015,2014,1955,1933,1975,2027,2026,1966,1936,1984,2031,2019,1954,1925,1979,2032,2028,1959,1910,1951,2032,2069,2207,2827,3931,4095,4095,4095,4095,4095,4095,3214,2418,2097,2096,2141,2107,1984,1913,1929,1962,1941,1866,1838,1882,1936,1934,1863,1837,1887,1937,1930,1871,1840,1893,1942,1936,1874,1853,1911,1978,1973,1919,1887,1934,1983,1982,1922,1904,1942,1985,1976,1910,1882,1931,1969,1955,1882,1845,1893,1936,1929,1863,1829,1873,1924,1919,1853,1834,1893,1948,1941,1883,1869,1920,1969,1955,1896,1876,1936,1985,1975,1907,1877,1929,1971,1961,1894,1872,1930,1971,1957,1891,1867,1915,1965,1954,1888,1867,1918,1969,1958,1894,1872,1918,1959,1938,1867,1842,1894,1936,1929,1864
1845,1903,1942,1931,1862,1840,1887,1939,1933,1870,1843,1892,1939,1932,1862,1838,1887,1932,1917,1851,1831,1887,1938,1930,1867,1844,1893,1936,1920,1850,1840,1893,1935,1919,1858,1840,1895,1941,1925,1850,1815,1872,1918,1899,1851,1838,1891,1936,1919,1849,1837,1914,1936,1919,1850,1833,1889,1934,1922,1855,1836,1893,1937,1932,1870,1843,1899,1945,1927,1858,1836,1904,1957,1942,1887,1870,1930,1970,1951,1876,1858,1933,1990,1981,1910,1886,1930,1969,1954,1898,1878,1927,1968,1938,1872,1856,1919,1965,1939,1872,1856,1920,1970,1963,1891,1870,1917,1953,1934,1871,1859,1907,1920,1895,1859,1892,2240,2996,4051,4095,4095,4095,4095,4095,3457,2550,2180,2125,2110,2022,1959,1965,1968,1930,1843,1812,1858,1895,1877,1809,1798,1865,1911,1899,1834,1818,1874,1920,1907,1844,1835,1902,1951,1943,1883,1873,1936,1984,1971,1909,1901,1962,2000,1982,1910,1897,1946,1983,1955,1885,1871,1931,1972,1949,1874,1856,1910,1951,1936,1872,1862,1919,1966,1950,1887,1871,1926,1968,1947,1880,1866,1921,1963,1948,1881,1872,1929,1968,1947,1872,1856,1910,1947,1919,1846,1835,1897,1936,1919,1856,1851,1904,1936,1909,1839,1819,1886,1936,1920,1856,1845,1901,1936,1909,1843,1827,1878,1917,1897,1833,1825,1887,1930,1904,1840,1822,1875,1913,1886,1817,1809,1870,1904,1879,1815,1808,1871,1906,1889
1829,1818,1872,1909,1896,1833,1815,1867,1905,1893,1837,1824,1882,1914,1882,1818,1809,1875,1916,1894,1831,1822,1873,1905,1879,1811,1810,1878,1921,1905,1847,1843,1903,1934,1915,1861,1867,1936,1970,1941,1867,1858,1920,1958,1936,1861,1840,1903,1936,1914,1847,1839,1895,1929,1903,1839,1831,1887,1916,1890,1827,1830,1898,1935,1905,1840,1823,1858,1889,1904,1900,2162,2896,3948,4095,4095,4095,4095,4095,3335,2414,2025,2032,2097,2061,1935,1868,1881,1887,1843,1773,1770,1838,1870,1838,1772,1773,1840,1878,1850,1787,1790,1865,1910,1900,1839,1839,1903,1934,1906,1851,1857,1930,1969,1941,1879,1882,1955,1989,1957,1886,1877,1937,1968,1936,1864,1857,1922,1953,1925,1854,1847,1907,1935,1904,1847,1847,1912,1945,1921,1863,1866,1926,1959,1929,1866,1870,1936,1970,1940,1875,1873,1937,1963,1923,1855,1847,1906,1937,1917,1853,1858,1930,1959,1925,1857,1858,1916,1936,1903,1838,1840,1909,1942,1910,1840,1827,1889,1925,1895,1839,1840,1904,1936,1904,1838,1840,1908,1943,1905,1835,1840,1907,1943,1904,1838,1838,1901,1930,1893,1829,1840,1904,1936,1903,1831,1830,1904,1938,1907,1839,1839,1901,1932,1900,1831,1836,1904,1934,1903,1843,1846,1915,1941,1908,1843,1847,1913,1941,1914,1846,1855,1923,1959,1921,1858,1867,1934,1969,1939,1877,1886,1951,1978,1953,1904,1919,1973,2000
1965,1898,1903,1968,2003,1963,1883,1883,1943,1969,1937,1872,1872,1933,1959,1929,1857,1861,1936,2014,1935,1872,1876,1911,1966,1939,1869,1843,1901,1963,1973,2247,3036,4095,4095,4095,4095,4095,4095,3824,2768,2166,2000,2064,2082,1993,1875,1847,1886,1899,1850,1786,1792,1856,1890,1856,1794,1801,1872,1903,1869,1808,1822,1889,1920,1887,1825,1841,1907,1943,1914,1858,1872,1941,1968,1935,1871,1873,1942,1967,1920,1851,1856,1919,1937,1885,1810,1819,1886,1911,1865,1794,1806,1873,1910,1879,1814,1825,1895,1926,1889,1830,1845,1920,1951,1915,1856,1872,1946,1968,1922,1855,1865,1933,1951,1903,1830,1838,1905,1936,1898,1831,1841,1907,1936,1901,1839,1850,1917,1943,1903,1840,1859,1933,1951,1904,1840,1827,1953,1946,1898,1838,1856,1919,1954,1899,1839,1856,1926,1951,1905,1839,1847,1916,1936,1899,1840,1856,1919,1943,1903,1840,1852,1917,1936,1887,1831,1853,1920,1947,1904,1842,1859,1936,1968,1920,1854,1870,1936,1958,1914,1850,1870,1941,1967,1915,1853,1870,1936,1962,1915,1851,1870,1939,1966,1920,1855,1871,1936,1959,1920,1869,1890,1955,1977,1923,1851,1872,1945,1969,1919,1846,1859,1923,1942,1895,1835,1858,1905,1938,1893,1826,1842,1907,1930,1879,1817,1840,1909,1938,1901,1840,1840,1883,1910,1904,1935,2439,3402,4095,4095,4095,4095,4095,4095,3232,2371,2046,2058
2082,2000,1885,1858,1891,1887,1823,1747,1759,1824,1847,1799,1743,1762,1835,1857,1817,1761,1781,1854,1879,1838,1777,1825,1886,1917,1871,1808,1837,1905,1930,1883,1827,1855,1922,1939,1888,1823,1839,1904,1929,1856,1791,1808,1874,1899,1830,1785,1789,1862,1881,1835,1782,1808,1877,1904,1861,1806,1833,1903,1927,1879,1815,1840,1909,1935,1879,1812,1840,1909,1926,1874,1807,1823,1895,1919,1865,1802,1819,1898,1920,1871,1804,1825,1890,1908,1858,1793,1810,1873,1897,1843,1781,1809,1876,1904,1849,1782,1810,1891,1914,1862,1801,1824,1889,1904,1850,1794,1827,1904,1923,1869,1797,1818,1884,1902,1846,1791,1814,1885,1903,1849,1782,1804,1872,1891,1840,1777,1807,1874,1895,1841,1779,1810,1882,1903,1854,1793,1823,1891,1911,1854,1797,1827,1897,1919,1867,1811,1851,1920,1937,1875,1808,1840,1907,1923,1872,1814,1851,1927,1951,1901,1834,1857,1933,1963,1907,1847,1849,1919,1940,1887,1834,1863,1934,1951,1881,1815,1847,1925,1942,1885,1823,1834,1928,1936,1877,1804,1891,1911,1927,1874,1812,1847,1919,1932,1842,1761,1811,1931,2099,2547,3293,4095,4095,4095,4095,4095,3513,2637,2171,2029,1993,2013,2032,1993,1891,1808,1818,1875,1885,1819,1764,1804,1874,1893,1840,1783,1814,1889,1905,1853,1799,1839,1913,1936,1879,1831,1872,1952,1970,1919,1857,1893,1961,1979,1930,1872,1905
1980,1986,1921,1863,1897,1967,1975,1904,1841,1872,1936,1954,1893,1834,1859,1927,1943,1887,1827,1860,1926,1946,1889,1837,1875,1943,1961,1901,1835,1866,1936,1955,1888,1824,1858,1925,1936,1872,1810,1847,1915,1930,1861,1807,1846,1918,1933,1872,1814,1859,1934,1945,1883,1829,1875,1907,1953,1919,1824,1854,1940,1950,1885,1871,1872,1949,1962,1904,1841,1878,1943,1953,1884,1828,1877,1947,1962,1936,1846,1875,1955,1968,1907,1857,1887,1965,1966,1898,1842,1887,1967,1982,1919,1858,1900,1969,1985,1920,1858,1895,1971,1990,1920,1866,1907,1977,1986,1923,1872,1920,1991,2005,1938,1879,1922,1997,2007,1947,1891,1931,2000,2015,1950,1898,1937,2007,2023,1959,1911,1955,2029,2039,1976,1936,1990,2066,2070,1997,1936,1975,2059,2064,1990,1932,1967,2026,2021,1949,1898,1944,2022,2032,1968,1904,1940,2017,2033,1972,1921,1963,2032,2036,1968,1909,1931,1966,1969,1955,2000,2334,3049,3987,4095,4095,4095,4095,4095,3141,2338,2097,2167,2205,2118,2000,1990,2032,2017,1936,1875,1915,1977,1980,1909,1858,1904,1975,1994,1931,1876,1927,1998,2017,1963,1915,1961,2033,2043,1984,1932,1983,2064,2079,1968,1942,2000,2036,2067,2001,1959,2000,2071,2071,1995,1938,1974,2055,2058,1984,1934,1978,2046,2054,1968,1914,1968,2037,2043,1968,1909,1956,2026,2027,1947,1896,1945,2015,2019,1938,1874
1918,1986,2000,1927,1873,1913,1978,1974,1904,1859,1915,1983,1989,1920,1872,1920,1985,1989,1919,1872,1925,2000,2001,1934,1883,1935,1999,1998,1920,1874,1921,1985,1993,1915,1859,1904,1971,1974,1895,1839,1885,1955,1967,1886,1831,1879,1955,1969,1899,1845,1899,1967,1967,1891,1840,1890,1961,1969,1899,1841,1889,1954,1955,1881,1840,1891,1963,1968,1893,1847,1904,1975,1982,1911,1865,1918,1979,1973,1899,1858,1921,1991,1989,1904,1851,1905,1972,1971,1893,1840,1886,1949,1953,1878,1834,1877,1938,1932,1866,1809,1856,1957,1946,1863,1813,1871,1937,1938,1858,1814,1856,1902,1904,1901,1982,2305,2925,3659,4095,4095,4095,4095,3615,2688,2061,1957,2091,2128,2030,1926,1925,1963,1947,1861,1807,1855,1913,1918,1843,1807,1871,1941,1946,1875,1839,1899,1970,1984,1909,1867,1926,2000,2015,1937,1903,1968,2046,2058,1979,1937,1997,2078,2084,2002,1967,2022,2093,2087,2003,1957,2013,2079,2071,1981,1931,1984,2058,2047,1968,1927,1983,2042,2031,1942,1895,1947,2007,1998,1918,1872,1921,1981,1972,1891,1849,1904,1967,1951,1865,1824,1886,1950,1947,1870,1826,1885,1951,1953,1873,1830,1883,1950,1941,1872,1839,1903,1966,1961,1885,1842,1901,1962,1954,1873,1798,1870,1970,1968,1887,1845,1903,1967,1962,1886,1855,1913,1973,1955,1871,1839,1901,1947,1952,1872,1887,1888,1952,1943,1857
1825,1884,1950,1951,1871,1831,1893,1949,1936,1855,1824,1926,1958,1947,1865,1829,1890,1959,1957,1874,1838,1902,1969,1965,1887,1862,1938,2006,2000,1918,1879,1950,2030,2033,1953,1907,1963,2018,2000,1920,1888,1951,2015,2002,1915,1872,1932,1999,1985,1901,1866,1925,1982,1968,1890,1857,1925,1990,1983,1899,1858,1923,1985,1968,1869,1856,1999,2191,2624,3344,4095,4095,4095,4095,4095,4095,3184,2416,2083,1968,1970,2032,2045,1978,1858,1805,1859,1914,1901,1811,1777,1851,1915,1901,1811,1785,1857,1934,1927,1846,1818,1893,1959,1958,1879,1857,1936,2001,1997,1914,1883,1951,2011,2000,1916,1888,1956,2026,2010,1925,1879,1941,1991,1979,1891,1861,1930,1987,1966,1883,1855,1925,1979,1968,1890,1865,1933,1993,1988,1907,1875,1936,2001,1984,1903,1872,1939,1998,1982,1897,1862,1923,1984,1971,1886,1855,1922,1983,1968,1882,1855,1920,1979,1968,1877,1853,1920,1975,1927,1872,1845,1913,1973,1962,1872,1844,1914,1970,1953,1869,1839,1910,1968,1958,1872,1851,1923,1984,1968,1875,1852,1921,1981,1968,1887,1867,1936,1991,1968,1874,1850,1923,1987,1979,1891,1865,1936,1996,1975,1891,1869,1937,1997,1984,1903,1873,1943,2000,1983,1891,1865,1941,2004,1991,1910,1889,1966,2017,1999,1908,1891,1968,2018,1997,1909,1882,1953,2016,2000,1917,1891,1963,2031,2023,1937,1920,1998,2047,2032
1940,1918,1985,2059,2047,1968,1940,2010,2061,2026,1935,1907,1984,2038,2007,1910,1883,1955,2011,1991,1904,1905,1952,2015,1990,1885,1900,1974,2032,2015,1929,1903,1969,2029,2006,1904,1877,2009,2147,2448,3131,4095,4095,4095,4095,4095,4095,4021,2960,2294,1995,1979,2074,2098,2030,1899,1846,1904,1945,1915,1827,1807,1873,1921,1901,1819,1805,1888,1946,1929,1844,1833,1915,1968,1949,1872,1863,1939,1991,1969,1880,1869,1947,2001,1975,1882,1863,1939,1991,1964,1872,1853,1923,1971,1939,1852,1838,1905,1955,1931,1842,1830,1907,1965,1943,1859,1850,1929,1984,1968,1886,1877,1955,2000,1971,1885,1875,1955,2006,1980,1886,1862,1929,1974,1952,1861,1846,1918,1970,1947,1858,1845,1923,1971,1943,1858,1847,1927,1984,1966,1866,1853,1931,1982,1954,1854,1831,1905,1963,1936,1853,1840,1910,1962,1934,1840,1828,1913,1967,1911,1839,1839,1919,1971,1936,1859,1840,1923,1974,1947,1855,1849,1931,1974,1946,1859,1850,1923,1971,1947,1856,1842,1917,1966,1944,1856,1846,1926,1982,1951,1857,1851,1928,1981,1947,1857,1853,1936,1987,1957,1869,1856,1936,1984,1954,1867,1859,1946,1995,1968,1876,1870,1954,2007,1971,1873,1859,1939,1993,1965,1871,1858,1938,1993,1957,1868,1856,1936,1985,1957,1857,1846,1934,1989,1966,1889,1893,1984,2033,1995,1897,1893,1991,2047,2017,1913,1899,1973,2026
1998,1907,1904,1978,2022,1984,1886,1875,1963,2000,1966,1877,1874,1959,2003,1969,1876,1872,1953,2000,1963,1871,1866,1955,1984,1932,1855,1903,2160,2835,3815,4095,4095,4095,4095,4095,4095,3086,2413,2160,2082,1997,1968,2006,2001,1931,1814,1767,1867,1904,1872,1760,1749,1863,1918,1879,1787,1777,1869,1914,1882,1801,1810,1908,1966,1930,1840,1840,1924,1979,1939,1847,1847,1934,1981,1936,1840,1835,1914,1953,1916,1823,1824,1902,1939,1898,1801,1796,1882,1930,1889,1801,1793,1881,1931,1903,1813,1815,1904,1953,1920,1840,1842,1927,1971,1936,1850,1853,1936,1973,1930,1834,1831,1910,1953,1910,1820,1821,1910,1953,1915,1822,1821,1903,1947,1913,1829,1842,1932,1975,1933,1840,1841,1918,1954,1906,1819,1823,1915,1963,1925,1837,1836,1915,1955,1907,1819,1827,1911,1945,1902,1811,1817,1904,1943,1904,1814,1821,1910,1956,1911,1814,1823,1915,1958,1914,1823,1828,1913,1954,1918,1827,1831,1930,1963,1919,1827,1839,1923,1968,1928,1840,1843,1929,1968,1920,1829,1838,1936,1954,1921,1830,1830,1915,1955,1918,1835,1847,1936,1974,1927,1839,1857,1946,1989,1950,1870,1886,1971,2003,1954,1865,1879,1981,2029,1978,1882,1882,1966,2000,1959,1875,1891,1971,2003,1951,1858,1875,1967,1996,1940,1850,1866,1953,1991,1943,1858,1866,1950,1991,1946,1856,1866,1950,1967,1901,1827,1905,2111
2544,3231,4094,4095,4095,4095,4095,3821,2831,2288,2149,2117,2038,2015,2038,2026,1948,1851,1859,1936,1968,1914,1829,1855,1952,1998,1948,1861,1873,1968,2010,1968,1889,1909,2000,2047,1999,1915,1936,2023,2066,2013,1935,1955,2039,2082,2028,1938,1953,2043,2086,2032,1936,1945,2027,2132,2018,1927,1939,2023,2067,2003,1913,1930,2014,2042,1984,1904,1925,2019,2064,2003,1911,1923,2006,2043,1985,1898,1915,2001,2036,1943,1882,1901,1984,2021,1959,1872,1896,1986,2023,1968,1881,1907,1994,2026,1971,1885,1903,1983,2016,1967,1879,1903,1991,2032,1972,1883,1903,1991,2027,1968,1879,1903,1984,2011,1954,1869,1893,1973,2000,1940,1855,1873,1964,1995,1934,1846,1872,1957,1991,1930,1838,1856,1950,1984,1926,1842,1863,1956,1994,1929,1831,1853,1943,1975,1920,1840,1872,1963,1991,1927,1837,1860,1954,1990,1934,1845,1870,1963,1996,1936,1856,1883,1971,2001,1939,1858,1891,1987,2029,1974,1895,1921,2007,2033,1974,1904,1936,2022,2041,1971,1879,1907,1998,2032,1968,1872,1890,1973,1999,1936,1856,1886,1968,1994,1932,1840,1867,1962,2003,1936,1854,1884,1968,1995,1929,1851,1869,1927,1946,1931,1936,2354,3264,4095,4095,4095,4095,4095,4095,3573,2567,2109,2086,2117,2047,1919,1897,1947,1949,1867,1773,1793,1878,1907,1841,1764,1807,1901,1932,1869,1792,1831,1925,1962,1903,1831,1872
1968,2000,1937,1860,1902,1993,2014,1941,1853,1882,1978,2002,1936,1846,1871,1955,1979,1906,1811,1842,1924,1939,1869,1786,1815,1898,1915,1850,1770,1805,1901,1936,1878,1795,1827,1921,1949,1893,1840,1921,2061,2127,2102,2094,2222,2403,2513,2573,2629,2737,2834,2841,2757,2672,2684,2741,2738,2665,2593,2613,2688,2713,2670,2617,2649,2714,2725,2666,2608,2645,2736,2757,2659,2515,2457,2458,2436,2352,2265,2257,2295,2295,2239,2181,2206,2261,2274,2212,2157,2176,2224,2229,2167,2110,2129,2183,2192,2138,2082,2109,2165,2178,2122,2065,2085,2117,2155,2103,2053,2080,2138,2156,2109,2047,2071,2138,2141,2106,2035,2079,2138,2160,2109,2053,2074,2128,2135,2105,2064,2089,2135,2142,2084,2023,2054,2107,2112,2043,1986,2005,2069,2079,2018,1968,1994,2055,2064,1998,1939,1967,2027,2035,1982,1935,1965,2025,2027,1966,1898,1904,1965,2032,2075,2286,2912,3857,4095,4095,4095,4095,4095,3108,2312,1996,2038,2134,2129,2020,1914,1911,1961,1962,1902,1845,1877,1935,1938,1887,1841,1874,1935,1949,1904,1870,1915,1986,1999,1945,1906,1955,2031,2041,1986,1936,1965,2032,2046,1994,1953,1987,2057,2065,2007,1967,2000,2064,2068,2003,1950,1969,2026,2029,1968,1922,1958,2009,2011,1943,1889,1919,1984,1997,1938,1888,1913,1971,1975,1917,1863,1894,1948,1952,1879,1847,1882,1947,1951,1890,1841
1921,1933,1942,1889,1841,1882,1953,1955,1904,1858,1888,1942,1943,1885,1840,1879,1941,1950,1893,1850,1888,1947,1949,1885,1841,1873,1934,1936,1872,1824,1857,1919,1930,1869,1817,1847,1902,1904,1842,1801,1833,1888,1891,1835,1783,1813,1866,1865,1805,1761,1805,1867,1867,1802,1761,1805,1862,1872,1811,1765,1797,1852,1862,1806,1760,1802,1857,1863,1809,1775,1818,1883,1890,1825,1790,1849,1919,1918,1850,1803,1841,1901,1969,1840,1805,1840,1888,1886,1818,1776,1814,1869,1873,1813,1774,1813,1869,1871,1805,1764,1810,1885,1898,1836,1787,1824,1867,1841,1783,1808,1956,2384,3135,4065,4095,4095,4095,4095,3967,2880,2202,2005,2013,1981,1915,1899,1904,1867,1787,1739,1776,1831,1830,1766,1718,1763,1825,1827,1760,1723,1778,1846,1854,1800,1759,1804,1867,1872,1825,1796,1855,1918,1925,1856,1827,1878,1938,1936,1872,1837,1875,1945,1939,1871,1829,1872,1926,1929,1870,1829,1868,1922,1913,1840,1809,1855,1904,1903,1839,1802,1851,1918,1916,1847,1808,1846,1904,1904,1839,1797,1841,1901,1899,1828,1781,1819,1872,1870,1802,1760,1808,1869,1869,1798,1760,1808,1870,1871,1808,1774,1820,1872,1871,1802,1763,1813,1873,1869,1805,1769,1813,1871,1870,1808,1770,1810,1869,1869,1805,1765,1814,1874,1873,1805,1771,1824,1876,1874,1808,1767,1821,1872,1868,1797,1764,1813,1874,1871,1802
1761,1804,1861,1856,1787,1757,1808,1865,1860,1793,1758,1808,1862,1858,1791,1758,1808,1857,1849,1781,1752,1819,1895,1865,1776,1781,1829,1887,1893,1849,1814,1862,1914,1904,1835,1794,1846,1893,1893,1814,1790,1842,1895,1872,1823,1787,1839,1882,1870,1793,1751,1808,1861,1862,1805,1773,1824,1878,1876,1798,1739,1792,1904,1979,2229,2918,3987,4095,4095,4095,4095,4095,3319,2427,1959,1879,1970,2017,1957,1835,1767,1801,1841,1824,1744,1711,1763,1814,1808,1742,1727,1795,1853,1853,1783,1757,1821,1882,1874,1805,1776,1834,1887,1872,1807,1779,1840,1895,1887,1808,1776,1824,1872,1859,1778,1743,1791,1840,1823,1744,1711,1769,1821,1808,1734,1703,1765,1824,1818,1742,1713,1777,1840,1836,1769,1744,1801,1856,1840,1770,1746,1815,1872,1856,1783,1758,1819,1869,1851,1776,1744,1802,1857,1856,1785,1754,1809,1858,1843,1775,1750,1781,1869,1865,1791,1759,1820,1872,1868,1799,1771,1818,1893,1881,1782,1770,1831,1885,1879,1808,1788,1849,1899,1886,1835,1782,1847,1904,1899,1821,1792,1861,1921,1918,1842,1815,1872,1921,1915,1855,1830,1883,1937,1933,1855,1835,1891,1942,1934,1861,1841,1905,1961,1950,1869,1839,1897,1947,1934,1859,1840,1901,1954,1939,1867,1843,1908,1973,1942,1862,1840,1904,1965,1953,1886,1870,1926,1978,1968,1903,1887,1952,2001,1984,1904,1883,1950,2005,1997
1918,1900,1955,2005,1993,1919,1900,1961,2002,1983,1906,1889,1958,2003,1986,1909,1891,1963,2013,1995,1907,1879,1943,2000,1989,1917,1887,1946,1984,1953,1899,1937,2146,2736,3658,4095,4095,4095,4095,4095,4095,3184,2448,2163,2098,2032,1991,2000,2002,1923,1847,1825,1920,1904,1900,1821,1807,1873,1931,1914,1840,1825,1894,1939,1919,1840,1829,1887,1957,1936,1873,1856,1925,1979,1968,1901,1883,1954,2005,1991,1914,1902,1964,2000,1974,1887,1858,1920,1957,1929,1846,1829,1895,1941,1922,1846,1834,1906,1958,1941,1872,1859,1936,1990,1971,1894,1876,1945,1995,1980,1908,1889,1955,2001,1979,1904,1889,1951,1996,1970,1887,1867,1930,1977,1954,1872,1859,1931,1975,1950,1875,1868,1935,1983,1958,1872,1855,1919,1966,1936,1856,1834,1904,1949,1931,1850,1840,1906,1948,1928,1849,1840,1908,1953,1934,1858,1854,1921,1966,1936,1859,1851,1923,1969,1937,1858,1849,1911,1953,1920,1847,1841,1918,1963,1935,1857,1854,1927,1974,1946,1863,1843,1904,1951,1933,1863,1866,1936,1974,1946,1867,1858,1931,1971,1942,1861,1850,1918,1963,1937,1835,1853,1923,1975,1937,1865,1847,1919,1959,1932,1859,1840,1932,1980,1962,1870,1865,1938,1999,1977,1894,1875,1939,1981,1951,1877,1872,1943,1978,1951,1872,1863,1936,1973,1936,1860,1854,1924,1963,1929,1855,1847,1921,1963,1934,1855,1853,1923,1959
1904,1810,1840,1969,2179,2683,3419,4095,4095,4095,4095,4095,3607,2704,2219,2075,2018,2017,2045,2027,1948,1845,1827,1890,1925,1897,1822,1811,1885,1924,1897,1827,1831,1913,1958,1922,1842,1848,1935,1978,1953,1882,1875,1948,1995,1973,1895,1895,1969,2015,1985,1908,1904,1970,2009,1977,1898,1892,1955,1990,1958,1885,1887,1956,1981,1939,1866,1859,1933,1968,1925,1840,1839,1886,1957,1922,1849,1855,1934,1971,1936,1861,1857,1933,1968,1927,1847,1845,1923,1958,1918,1839,1809,1919,1953,1917,1843,1847,1919,1947,1905,1803,1834,1906,1940,1909,1840,1856,1929,1963,1921,1841,1841,1911,1953,1916,1834,1840,1909,1947,1915,1836,1838,1905,1936,1901,1819,1826,1903,1936,1899,1823,1825,1901,1928,1883,1805,1814,1898,1935,1891,1811,1820,1901,1931,1879,1792,1806,1891,1929,1888,1811,1830,1907,1947,1909,1837,1840,1961,1946,1905,1833,1840,1915,1946,1905,1838,1845,1926,1967,1930,1857,1872,1949,1983,1947,1882,1906,1985,2007,1962,1873,1883,1965,2000,1951,1867,1871,1940,1974,1936,1870,1867,1936,1968,1929,1856,1869,1939,1974,1935,1859,1871,1942,1975,1936,1867,1866,1920,1962,1966,1975,2353,3179,4095,4095,4095,4095,4095,4095,3133,2306,2029,2095,2143,2059,1938,1901,1937,1939,1903,1807,1827,1899,1926,1885,1811,1804,1913,1952,1908,1841,1859,1936,1972,1938,1866,1879,1962
1999,1954,1885,1905,1991,2033,1989,1913,1931,2009,2047,2000,1925,1936,2005,2032,1978,1899,1918,1995,2019,1963,1875,1886,1966,1990,1942,1866,1881,1968,2002,1954,1875,1899,1969,1997,1937,1858,1877,1963,1994,1940,1865,1883,1952,1971,1911,1840,1856,1935,1963,1911,1840,1858,1936,1968,1923,1851,1867,1941,1968,1917,1840,1857,1931,1959,1910,1841,1856,1933,1957,1904,1834,1859,1938,1968,1915,1840,1856,1936,1965,1909,1834,1851,1924,1951,1899,1826,1856,1930,1953,1895,1814,1840,1921,1952,1895,1815,1840,1925,1951,1897,1822,1847,1931,1957,1899,1826,1852,1931,1953,1902,1829,1856,1938,1959,1903,1827,1855,1936,1968,1911,1834,1857,1918,1962,1904,1862,1841,1933,1966,1915,1840,1861,1948,1968,1918,1850,1875,1958,1979,1919,1841,1867,1948,1980,1932,1866,1906,1998,2027,1967,1888,1911,2000,2032,1981,1904,1925,1995,2015,1954,1887,1918,1995,2015,1952,1872,1891,1971,1994,1936,1865,1891,1968,1989,1935,1861,1893,1975,1995,1934,1867,1905,1998,2013,1923,1847,1924,2087,2512,3267,4095,4095,4095,4095,4095,4095,3426,2595,2189,2034,1983,2001,2041,2015,1919,1822,1834,1902,1906,1840,1771,1805,1890,1918,1856,1778,1808,1889,1909,1855,1795,1827,1909,1936,1877,1809,1846,1934,1957,1904,1840,1874,1957,1982,1920,1856,1882,1947,1955,1886,1813,1856,1920,1933,1863,1791,1829
1905,1922,1854,1777,1808,1885,1914,1850,1799,1843,1936,1962,1904,1847,1877,1959,1978,1920,1857,1901,1979,1991,1921,1857,1897,1973,1988,1919,1853,1887,1968,1985,1931,1872,1911,1984,2010,1959,1903,1950,2032,2057,1990,1940,2002,2131,2218,2201,2157,2185,2250,2256,2191,2121,2145,2207,2212,2140,2077,2107,2174,2185,2118,2047,2084,2155,2167,2102,2035,2068,2132,2147,2079,2011,2044,2112,2114,2054,2000,2033,2111,2125,2069,2015,2064,2128,2140,2079,2022,2064,2131,2147,2091,2038,2083,2153,2163,2098,2037,2077,2138,2141,2086,2031,2071,2133,2147,2093,2039,2090,2157,2160,2097,2037,2077,2139,2150,2090,2028,2064,2128,2130,2065,2014,2058,2113,2112,2041,1989,2022,2091,2096,2032,1971,2003,2112,2085,2032,1979,2011,2090,2102,2038,1985,2016,2046,2083,2015,1962,1994,2055,2053,1983,1922,1959,2031,2032,1964,1909,1945,2007,2016,1958,1906,1938,2000,2000,1939,1892,1933,1997,1981,1905,1879,1957,2209,2847,3753,4095,4095,4095,4095,4095,3958,2918,2320,2111,2032,1984,1984,1991,1941,1840,1775,1807,1861,1857,1789,1744,1789,1856,1865,1808,1761,1800,1856,1861,1802,1765,1809,1877,1887,1835,1792,1843,1904,1904,1840,1804,1847,1910,1920,1857,1812,1850,1905,1904,1835,1776,1813,1872,1874,1813,1771,1808,1867,1863,1793,1747,1803,1863,1869,1808,1762,1807,1873,1882,1822,1782
1835,1899,1903,1840,1799,1847,1915,1913,1850,1799,1840,1902,1903,1835,1790,1830,1885,1883,1835,1775,1815,1872,1872,1803,1773,1816,1905,1875,1808,1765,1808,1878,1879,1815,1776,1820,1878,1879,1845,1771,1808,1866,1870,1794,1737,1799,1869,1869,1806,1767,1811,1869,1869,1799,1760,1807,1867,1867,1804,1759,1807,1865,1867,1809,1767,1809,1872,1873,1808,1771,1818,1873,1874,1808,1767,1808,1868,1871,1810,1774,1821,1886,1890,1821,1778,1826,1887,1887,1825,1791,1839,1894,1888,1817,1777,1819,1872,1872,1808,1773,1823,1882,1882,1815,1787,1840,1904,1904,1830,1787,1839,1904,1924,1872,1837,1874,1922,1916,1851,1815,1867,1918,1907,1831,1786,1833,1889,1888,1815,1775,1825,1888,1883,1818,1778,1825,1878,1878,1810,1776,1824,1878,1854,1749,1718,1817,1958,2247,2826,3625,4095,4095,4095,4095,3812,2855,2231,2021,1974,1958,1974,1966,1909,1808,1749,1783,1842,1835,1763,1731,1779,1846,1831,1769,1708,1798,1866,1862,1803,1773,1839,1903,1905,1855,1798,1872,1931,1929,1872,1840,1893,1953,1951,1879,1850,1904,1954,1943,1869,1841,1889,1943,1941,1877,1840,1887,1936,1926,1856,1821,1871,1925,1921,1853,1826,1876,1927,1913,1840,1808,1859,1911,1903,1827,1791,1840,1893,1889,1819,1792,1840,1888,1874,1808,1778,1840,1899,1890,1822,1791,1846,1901,1893,1827,1801,1856,1910,1909,1840
1808,1866,1917,1906,1830,1802,1859,1914,1904,1833,1803,1857,1903,1889,1819,1797,1854,1904,1888,1818,1792,1851,1904,1885,1807,1776,1837,1900,1895,1826,1795,1854,1905,1902,1829,1802,1861,1920,1907,1835,1797,1843,1906,1904,1838,1808,1862,1921,1887,1837,1809,1863,1919,1920,1842,1814,1872,1929,1921,1850,1824,1884,1938,1923,1853,1829,1879,1933,1920,1847,1833,1895,1951,1951,1893,1867,1920,1965,1952,1894,1877,1937,1991,1973,1897,1867,1930,1989,1984,1904,1873,1917,1958,1943,1878,1855,1904,1948,1936,1873,1854,1914,1965,1947,1875,1853,1915,1968,1957,1889,1843,1872,1937,1982,2015,2416,3281,4095,4095,4095,4095,4095,4095,3216,2369,2039,2068,2128,2086,1957,1888,1908,1936,1909,1828,1798,1842,1885,1867,1795,1776,1840,1890,1873,1808,1789,1850,1903,1897,1831,1821,1891,1947,1938,1874,1856,1914,1960,1947,1875,1861,1925,1975,1965,1895,1872,1921,1967,1950,1872,1845,1901,1938,1921,1849,1826,1878,1919,1904,1837,1822,1888,1936,1930,1870,1840,1904,1949,1936,1863,1843,1909,1957,1936,1865,1846,1904,1945,1920,1850,1825,1875,1920,1902,1835,1819,1879,1934,1979,1855,1838,1895,1936,1910,1842,1827,1894,1942,1936,1865,1850,1910,1953,1935,1866,1855,1914,1961,1943,1872,1855,1904,1946,1931,1863,1847,1907,1957,1938,1863,1840,1901,1941,1922,1856,1840,1899,1943,1926
1856,1835,1899,1945,1933,1862,1840,1904,1946,1933,1867,1861,1921,1963,1940,1870,1855,1910,1964,1945,1882,1863,1921,1959,1934,1871,1863,1927,1967,1940,1875,1866,1931,1979,1968,1915,1907,1965,2000,1974,1911,1911,1979,2028,2000,1926,1908,1968,2013,1986,1911,1879,1934,1970,1951,1888,1873,1936,1975,1952,1879,1863,1927,1969,1953,1879,1866,1933,1975,1955,1883,1872,1918,1950,1963,1951,2096,2715,3706,4095,4095,4095,4095,4095,4074,2938,2261,2096,2119,2099,1994,1936,1957,1968,1936,1807,1821,1862,1904,1871,1792,1779,1831,1897,1872,1809,1799,1866,1910,1897,1839,1831,1898,1942,1926,1862,1859,1925,1968,1946,1881,1876,1937,1978,1955,1886,1883,1941,1974,1954,1861,1851,1913,1943,1915,1835,1821,1881,1921,1897,1827,1822,1886,1921,1901,1829,1821,1887,1927,1904,1834,1822,1883,1925,1909,1843,1830,1885,1921,1891,1815,1808,1875,1919,1894,1819,1808,1871,1905,1879,1810,1805,1872,1910,1881,1808,1803,1869,1904,1873,1808,1799,1867,1904,1877,1807,1799,1869,1906,1875,1809,1799,1858,1899,1868,1793,1794,1859,1893,1856,1776,1775,1842,1885,1853,1779,1772,1835,1871,1842,1774,1766,1827,1869,1823,1770,1723,1827,1869,1842,1766,1771,1838,1876,1857,1791,1790,1851,1886,1854,1786,1785,1850,1897,1870,1808,1815,1877,1925,1903,1840,1839,1921,1982,1968,1910,1914,1983,2032
2031,1983,1985,2035,2064,2028,1967,1981,2066,2112,2081,2005,2008,2083,2118,2096,2017,2017,2096,2138,2110,2033,2032,2103,2139,2112,2033,2043,2118,2154,2125,2058,2032,2097,2165,2189,2365,3055,4095,4095,4095,4095,4095,4095,4095,3047,2366,2147,2192,2225,2164,2047,2009,2047,2062,2013,1940,1937,2000,2032,2000,1931,1933,2006,2058,2028,1965,1968,2041,2083,2041,1969,1979,2058,2094,2063,1997,1999,2069,2112,2081,2003,2000,2064,2096,2061,1984,1983,2046,2071,2021,1942,1942,2006,2032,1987,1909,1905,1968,1983,1936,1857,1855,1918,1957,1925,1860,1872,1946,1968,1920,1841,1840,1904,1936,1893,1822,1829,1904,1926,1890,1811,1807,1893,1921,1891,1819,1824,1889,1919,1895,1817,1821,1886,1919,1881,1808,1819,1902,1925,1871,1802,1795,1860,1889,1860,1786,1781,1841,1870,1834,1751,1758,1836,1857,1815,1745,1755,1827,1854,1808,1725,1725,1792,1825,1782,1706,1700,1763,1787,1740,1655,1658,1723,1743,1687,1600,1595,1665,1694,1651,1582,1595,1669,1703,1661,1584,1587,1663,1701,1669,1601,1606,1673,1698,1659,1586,1600,1671,1706,1655,1571,1569,1633,1659,1616,1535,1527,1597,1619,1585,1513,1515,1582,1611,1568,1475,1472,1543,1579,1528,1456,1463,1543,1571,1520,1442,1446,1495,1497,1466,1457,1567,1957,2640,3345,4013,4095,4095,3692,2843,2019,1613,1633,1716,1679,1555,1499,1533
1556,1507,1437,1453,1531,1581,1535,1471,1488,1554,1622,1597,1520,1546,1630,1670,1639,1574,1589,1679,1719,1694,1648,1681,1771,1826,1807,1751,1782,1881,1926,1899,1837,1857,1939,1984,1942,1877,1888,1968,2003,1968,1894,1902,1983,2025,1985,1913,1926,1997,2021,1979,1905,1920,1994,2030,1978,1895,1901,1968,1987,1936,1863,1872,1937,1959,1907,1840,1853,1920,1944,1897,1819,1825,1898,1925,1875,1809,1824,1899,1925,1881,1808,1817,1883,1911,1870,1802,1813,1883,1905,1856,1776,1787,1859,1883,1839,1770,1789,1866,1892,1835,1755,1765,1841,1876,1835,1760,1775,1847,1872,1826,1755,1770,1847,1879,1839,1776,1802,1885,1923,1888,1824,1852,1921,1946,1906,1842,1872,1958,1995,1952,1895,1918,1999,2027,1984,1923,1957,2055,2087,2031,1957,1970,2053,2087,2029,1968,2005,2034,2065,2010,1919,2034,2042,2071,2019,1941,1978,2055,2078,2029,1952,1973,2047,2078,2022,1952,1973,2058,2065,2000,1956,2054,2275,2765,3515,4095,4095,4095,4095,4095,3830,2853,2347,2224,2192,2135,2122,2142,2126,2046,1956,1962,2032,2063,2006,1934,1954,2027,2058,2010,1946,1975,2059,2094,2045,1984,2011,2096,2126,2085,2015,2046,2130,2163,2119,2062,2083,2160,2183,2128,2055,2083,2161,2192,2144,2078,2096,2165,2182,2127,2053,2070,2145,2170,2112,2032,2059,2129,2153,2109,2042,2064,2140,2163,2110,2035,2061
2129,2147,2094,2019,2038,2109,2123,2064,1984,2007,2081,2101,2043,1982,2002,2083,2101,2037,1968,1993,2069,2092,2033,1971,1999,2075,2095,2032,1967,1989,2064,2092,2033,1969,1999,2074,2097,2035,1969,1995,2069,2091,2030,1966,1986,2064,2080,2019,1947,1970,2033,2054,1993,1931,1955,2022,2032,1969,1907,1935,2000,2027,1974,1909,1938,2013,2037,1988,1923,1939,2011,2032,1987,1935,1964,2032,2053,1995,1934,1966,2054,2075,2017,1951,1970,2039,2065,2010,1945,1966,2032,2043,1981,1914,1948,2015,2032,1971,1901,1922,1998,2018,1963,1904,1938,2022,2045,1984,1921,1950,2023,2022,1942,1904,1995,2206,2739,3583,4095,4095,4095,4095,4095,4077,3003,2367,2142,2075,2026,2026,2047,2023,1936,1856,1869,1926,1939,1883,1823,1852,1921,1939,1892,1840,1878,1958,1975,1921,1861,1897,1974,1991,1936,1881,1919,1994,2014,1965,1904,1935,2012,2029,1963,1894,1921,1999,2015,1958,1892,1917,1984,1999,1934,1869,1899,1970,1991,1935,1872,1905,1978,1995,1936,1879,1905,1971,1979,1921,1866,1901,1968,1980,1915,1851,1876,1943,1959,1893,1835,1861,1933,1939,1874,1811,1843,1913,1932,1874,1815,1853,1921,1936,1872,1808,1845,1915,1927,1869,1803,1831,1904,1917,1857,1799,1835,1904,1914,1851,1793,1789,1904,1920,1858,1798,1833,1903,1911,1851,1791,1825,1894,1911,1856,1798,1835,1900,1912,1847,1788
1824,1889,1901,1835,1775,1806,1877,1899,1840,1789,1822,1887,1895,1834,1775,1807,1877,1895,1841,1792,1833,1894,1904,1851,1803,1833,1899,1904,1840,1786,1826,1903,1914,1847,1787,1825,1899,1910,1846,1791,1823,1892,1911,1859,1808,1845,1918,1930,1869,1808,1840,1906,1920,1856,1802,1841,1909,1922,1865,1812,1857,1934,1953,1894,1842,1875,1943,1965,1915,1876,1915,1981,1985,1919,1869,1906,1976,1983,1909,1846,1877,1943,1950,1890,1834,1871,1938,1951,1893,1837,1872,1937,1950,1882,1834,1876,1949,1936,1890,1822,1840,1915,1978,1997,2357,3213,4095,4095,4095,4095,4095,4095,3392,2469,2009,1984,2079,2075,2025,1853,1853,1888,1877,1805,1747,1795,1867,1868,1799,1739,1781,1856,1875,1829,1782,1834,1905,1910,1845,1805,1855,1929,1937,1873,1825,1873,1950,1958,1895,1841,1877,1939,1946,1882,1830,1869,1926,1919,1849,1798,1843,1905,1920,1870,1819,1855,1923,1927,1866,1813,1865,1936,1941,1882,1840,1893,1959,1967,1898,1855,1904,1975,1983,1913,1861,1904,1968,1969,1904,1855,1893,1955,1961,1899,1856,1901,1959,1958,1886,1840,1885,1952,1949,1874,1823,1863,1926,1933,1871,1831,1874,1931,1930,1863,1818,1859,1922,1920,1857,1813,1866,1926,1921,1851,1805,1853,1916,1919,1847,1793,1838,1901,1905,1846,1799,1846,1904,1904,1830,1786,1845,1917,1922,1857,1810,1853,1913,1917,1845
1802,1842,1905,1914,1845,1797,1843,1912,1915,1853,1815,1862,1917,1931,1862,1821,1866,1926,1934,1860,1818,1869,1934,1936,1867,1815,1869,1932,1951,1890,1841,1899,1949,1949,1889,1863,1920,1981,1973,1898,1849,1891,1957,1969,1907,1855,1885,1925,1926,1862,1818,1870,1934,1935,1867,1823,1871,1933,1933,1862,1818,1871,1936,1936,1872,1825,1858,1904,1907,1897,1941,2298,3024,3942,4095,4095,4095,4095,3914,2846,2158,2008,2096,2117,2014,1906,1903,1936,1919,1847,1806,1846,1902,1894,1825,1791,1847,1914,1919,1853,1811,1867,1936,1943,1881,1840,1895,1962,1963,1897,1859,1911,1975,1977,1917,1883,1938,2003,2002,1936,1901,1948,2005,2000,1927,1881,1931,1986,1981,1906,1861,1905,1964,1961,1890,1847,1902,1963,1961,1886,1847,1902,1953,1946,1874,1810,1872,1923,1909,1859,1807,1859,1909,1904,1831,1793,1841,1903,1899,1823,1776,1827,1889,1892,1819,1782,1835,1887,1881,1805,1763,1820,1887,1879,1813,1776,1827,1883,1879,1818,1781,1839,1901,1899,1826,1792,1842,1894,1882,1811,1776,1837,1866,1890,1815,1776,1833,1885,1877,1802,1767,1818,1872,1870,1807,1776,1837,1893,1881,1808,1772,1817,1877,1872,1792,1760,1814,1872,1872,1805,1769,1829,1886,1885,1811,1781,1836,1897,1892,1822,1794,1856,1917,1915,1843,1815,1875,1939,1934,1861,1837,1893,1957,1962,1894,1856,1907,1959,1951
1898,1849,1899,1951,1936,1867,1833,1877,1935,1929,1868,1821,1885,1934,1919,1843,1814,1872,1934,1923,1850,1825,1897,1961,1957,1874,1815,1858,1959,2026,2158,2800,3821,4095,4095,4095,4095,4095,3590,2599,2064,1929,2023,2096,2032,1901,1828,1859,1893,1872,1798,1764,1827,1875,1858,1783,1758,1822,1875,1872,1807,1786,1850,1909,1906,1842,1818,1873,1937,1942,1879,1851,1908,1968,1963,1891,1863,1918,1968,1950,1879,1857,1915,1965,1943,1872,1847,1905,1961,1941,1863,1824,1877,1929,1919,1847,1817,1874,1936,1936,1872,1849,1908,1961,1942,1863,1834,1886,1936,1924,1847,1821,1878,1921,1894,1808,1779,1841,1904,1894,1818,1791,1853,1907,1890,1817,1791,1846,1891,1873,1797,1773,1840,1888,1872,1801,1777,1838,1885,1872,1808,1787,1844,1890,1877,1810,1789,1850,1899,1887,1810,1792,1855,1936,1887,1813,1792,1861,1904,1897,1826,1798,1861,1904,1887,1809,1795,1851,1901,1887,1815,1794,1855,1904,1890,1805,1796,1859,1911,1895,1820,1802,1870,1920,1903,1822,1798,1862,1914,1900,1827,1807,1869,1913,1902,1833,1819,1883,1936,1929,1855,1830,1887,1936,1920,1851,1830,1887,1936,1921,1846,1827,1887,1938,1923,1859,1846,1915,1968,1954,1875,1856,1933,1997,1984,1911,1889,1946,1989,1972,1905,1887,1951,1996,1968,1884,1857,1920,1962,1933,1854,1835,1905,1962,1945,1871,1855,1917,1958
1938,1871,1860,1935,1986,1958,1866,1862,1974,2137,2634,3450,4095,4095,4095,4095,4095,4095,3314,2510,2127,1990,1989,2032,2029,1961,1854,1808,1854,1888,1863,1786,1767,1835,1885,1866,1792,1781,1855,1904,1878,1808,1793,1872,1927,1910,1843,1839,1916,1974,1958,1878,1867,1924,1984,1968,1893,1875,1955,1983,1969,1899,1873,1904,1954,1911,1867,1855,1922,1975,1962,1875,1863,1923,1968,1949,1889,1878,1955,2004,1993,1925,1905,1968,2003,1987,1917,1904,1970,2013,1985,1913,1901,1965,2000,1981,1904,1888,1946,1984,1962,1889,1879,1943,1987,1965,1891,1875,1936,1979,1959,1883,1873,1939,1984,1964,1882,1872,1939,1983,1954,1881,1869,1935,1969,1939,1867,1859,1929,1971,1947,1875,1862,1931,1972,1951,1882,1875,1941,1984,1955,1875,1857,1922,1968,1943,1874,1863,1933,1970,1942,1872,1863,1936,1973,1949,1882,1872,1939,1982,1953,1879,1873,1936,1974,1953,1889,1887,1955,1999,1968,1902,1886,1947,1985,1963,1898,1891,1962,2005,1983,1907,1904,1973,2013,1982,1907,1903,1967,2000,1980,1915,1917,1985,2021,1996,1927,1929,1981,2025,2000,1935,1943,2019,2062,2025,1943,1935,2013,2070,2059,1984,1971,2034,2077,2038,1969,1963,2029,2064,2019,1931,1920,1987,2031,1995,1920,1918,1989,2031,1999,1920,1915,1984,2022,1997,1923,1913,1977,1995,1943,1873,1913,2039,2389,3081,4002,4095,4095
4095,4095,4095,3307,2531,2203,2114,2064,2037,2058,2037,1971,1875,1861,1923,1953,1914,1840,1837,1904,1937,1904,1840,1835,1903,1941,1917,1856,1859,1936,1981,1953,1891,1899,1966,2003,1971,1908,1911,1991,2030,1995,1923,1925,1993,2026,1988,1912,1904,1967,1997,1958,1889,1887,1959,1989,1952,1882,1885,1966,2003,1971,1902,1895,1965,2000,1970,1896,1887,1943,1961,1937,1872,1859,1917,1959,1912,1840,1847,1917,1942,1899,1822,1811,1871,1902,1869,1801,1805,1873,1917,1872,1819,1811,1887,1923,1892,1813,1817,1893,1928,1888,1824,1826,1898,1922,1888,1819,1827,1897,1920,1874,1805,1801,1875,1910,1879,1813,1820,1885,1915,1872,1808,1814,1879,1911,1872,1796,1795,1861,1898,1867,1801,1808,1878,1910,1870,1795,1797,1870,1904,1870,1799,1802,1879,1919,1879,1808,1808,1873,1904,1872,1807,1813,1888,1924,1891,1821,1834,1910,1946,1910,1840,1835,1904,1936,1919,1856,1856,1917,1939,1902,1837,1840,1910,1937,1904,1831,1831,1902,1925,1888,1826,1833,1904,1936,1895,1824,1837,1906,1936,1894,1836,1842,1905,1936,1899,1806,1798,1898,2010,2126,2512,3273,4095,4095,4095,4095,4095,3431,2570,2055,1949,2078,2086,2064,1957,1841,1826,1874,1905,1866,1795,1805,1872,1893,1872,1810,1822,1855,1920,1953,1827,1850,1933,1968,1936,1872,1892,1971,2003,1973,1919,1930,1994,2022,1978,1914,1931
2001,2032,1984,1916,1923,1993,2019,1983,1913,1920,1987,2010,1970,1907,1913,1974,1994,1953,1891,1904,1979,2003,1964,1893,1903,1967,1983,1933,1865,1878,1947,1973,1926,1847,1844,1905,1930,1888,1819,1823,1893,1925,1886,1815,1829,1899,1919,1873,1809,1825,1895,1922,1876,1812,1827,1899,1920,1885,1830,1845,1915,1936,1888,1824,1840,1906,1929,1882,1818,1839,1904,1923,1877,1809,1825,1894,1915,1872,1805,1818,1889,1917,1866,1795,1819,1895,1919,1863,1799,1815,1891,1910,1860,1802,1829,1904,1934,1882,1813,1829,1898,1919,1873,1818,1830,1897,1915,1872,1813,1835,1907,1931,1890,1830,1822,1916,1942,1911,1855,1872,1938,1940,1904,1851,1879,1965,1968,1917,1841,1858,1927,1949,1904,1851,1870,1936,1947,1900,1840,1856,1917,1935,1887,1824,1847,1920,1947,1908,1850,1870,1936,1954,1903,1839,1859,1908,1917,1905,1914,2150,2827,3821,4095,4095,4095,4095,4095,3803,2726,2155,2063,2090,2035,1939,1907,1936,1925,1857,1792,1808,1875,1897,1845,1776,1794,1866,1887,1847,1788,1810,1885,1909,1872,1824,1855,1891,1945,1904,1845,1872,1950,1968,1920,1861,1883,1963,1987,1943,1879,1900,1969,1991,1945,1879,1899,1968,1975,1925,1862,1886,1954,1969,1916,1847,1867,1942,1967,1915,1859,1884,1960,1968,1921,1847,1856,1919,1936,1887,1827,1847,1910,1929,1872,1797,1813,1875,1887,1837,1779
1808,1872,1886,1836,1774,1791,1858,1872,1802,1738,1773,1861,1875,1818,1757,1783,1859,1873,1817,1751,1776,1839,1863,1810,1743,1761,1829,1842,1793,1733,1759,1830,1851,1798,1747,1775,1840,1845,1781,1719,1762,1837,1846,1780,1723,1750,1822,1840,1790,1734,1762,1831,1841,1795,1742,1771,1842,1857,1806,1749,1786,1856,1873,1819,1763,1800,1881,1907,1854,1789,1810,1884,1898,1841,1786,1815,1879,1889,1829,1777,1815,1885,1895,1831,1774,1802,1872,1886,1827,1776,1806,1874,1893,1842,1789,1814,1878,1881,1804,1750,1847,2029,2301,2817,3506,4095,4095,4095,4095,3706,2804,2211,2013,2000,1990,2004,2016,1970,1878,1811,1841,1907,1920,1872,1818,1846,1910,1922,1872,1791,1853,1926,1942,1895,1848,1891,1971,1990,1936,1891,1941,2005,2023,1971,1922,1967,2046,2064,2001,1954,1987,2061,2073,2010,1946,1986,2059,2069,2005,1945,1978,2041,2055,1989,1935,1974,2043,2053,1987,1935,1965,2029,2036,1970,1907,1929,1983,1979,1916,1867,1904,1968,1968,1901,1840,1871,1936,1939,1878,1825,1858,1932,1939,1877,1824,1862,1931,1937,1881,1827,1865,1936,1950,1893,1844,1881,1951,1966,1905,1857,1897,1965,1968,1904,1847,1881,1949,1962,1902,1847,1878,1936,1937,1879,1833,1870,1930,1935,1883,1839,1873,1935,1938,1875,1829,1863,1929,1935,1872,1819,1859,1930,1945,1888,1839,1872,1931,1936,1872
1828,1872,1945,1961,1901,1842,1881,1955,1970,1926,1883,1925,1991,1997,1936,1899,1946,2021,2023,1959,1909,1949,1990,2013,1968,1915,1953,2003,2000,1933,1894,1936,1991,1991,1934,1887,1929,2000,2000,1934,1885,1927,1994,2003,1943,1904,1942,1999,2029,2064,2150,2556,3384,4095,4095,4095,4095,4095,4095,3366,2444,2059,2069,2139,2093,1990,1980,2009,1998,1925,1871,1896,1953,1957,1898,1851,1894,1963,1971,1911,1869,1908,1975,1986,1939,1904,1955,2019,2031,1974,1936,1978,2047,2053,1989,1947,1992,2055,2056,1985,1940,1986,2046,2044,1977,1933,1968,2032,2032,1967,1919,1962,2022,2018,1951,1906,1943,2004,2017,1959,1924,1974,2034,2032,1968,1925,1967,2030,2034,1970,1924,1957,2006,2002,1941,1894,1936,1999,1994,1930,1886,1931,1991,1997,1936,1895,1933,1999,2000,1937,1895,1936,1993,1992,1931,1890,1929,1987,1987,1926,1887,1929,1986,1990,1932,1891,1931,1990,1987,1921,1907,1936,2000,1985,1923,1873,1921,1984,1987,1921,1872,1923,1983,2002,1918,1886,1938,2000,2000,1933,1888,1936,1999,1999,1930,1893,1942,2007,2006,1936,1890,1936,2000,2001,1936,1904,1965,2033,2032,1965,1920,1968,2036,2061,2005,1969,2012,2069,2064,1991,1953,2002,2073,2071,1992,1941,1972,2012,2014,1958,1922,1968,2030,2027,1964,1921,1973,2037,2035,1974,1936,1984,2041,2035,1975,1922,1967,2077,2154
2304,2895,3958,4095,4095,4095,4095,4095,4005,2919,2226,2000,2070,2143,2103,1987,1918,1936,1979,1965,1885,1852,1906,1970,1962,1891,1854,1906,1970,1967,1901,1870,1925,1991,1986,1919,1889,1948,2021,2020,1953,1920,1971,2035,2038,1978,1945,1997,2057,2042,1970,1926,1971,2032,2021,1946,1910,1955,2002,1999,1930,1899,1949,2003,2001,1922,1879,1945,2001,2000,1935,1904,1953,2000,1989,1920,1893,1936,1990,1981,1907,1875,1926,1982,1968,1888,1853,1898,1955,1955,1890,1858,1907,1967,1962,1903,1872,1919,1968,1954,1887,1858,1914,1968,1956,1884,1850,1903,1961,1947,1883,1855,1903,1950,1941,1872,1840,1891,1948,1938,1872,1845,1898,1955,1948,1877,1846,1898,1953,1951,1885,1857,1915,1967,1954,1885,1857,1904,1953,1943,1884,1862,1917,1968,1953,1881,1851,1901,1953,1946,1882,1861,1919,1982,1977,1916,1881,1936,1995,1991,1936,1926,1988,2037,2018,1943,1918,1971,2022,2001,1921,1888,1939,1993,1978,1906,1877,1927,1981,1972,1907,1883,1947,1975,1986,1919,1895,1954,2002,1989,1918,1898,1937,1969,1985,1943,2083,2657,3650,4095,4095,4095,4095,4095,4095,3008,2289,2096,2125,2126,2022,1951,1968,1998,1968,1888,1854,1903,1949,1927,1854,1828,1888,1953,1927,1862,1840,1904,1961,1947,1885,1871,1935,1995,1995,1935,1915,1977,2032,2020,1953,1932,1984,2032,2011,1941,1926,1982,2030
2017,1947,1918,1968,2010,1998,1927,1907,1968,2010,2000,1930,1909,1968,2020,2006,1941,1929,1989,2036,2016,1944,1923,1985,2037,2027,1958,1935,1991,2047,2032,1963,1937,2000,2054,2032,1966,1949,2006,2055,2031,1962,1936,2000,2055,2032,1957,1936,1998,2046,2027,1961,1948,2013,2069,2054,1977,1950,2007,2058,2032,1959,1941,2005,2064,2038,1968,1938,1998,2035,1978,1957,1936,1997,2032,2031,1955,1941,2000,2058,2031,1959,1943,2005,2060,2026,1961,1951,2017,2075,2059,1949,1958,2017,2069,2064,1996,1984,2043,2090,2064,1991,1969,2027,2073,2047,1977,1949,2000,2047,2031,1967,1946,2006,2057,2019,1943,1930,1994,2043,2021,1947,1927,1988,2033,2014,1943,1917,1955,2001,2027,2032,2371,3210,4095,4095,4095,4095,4095,4095,3265,2406,2064,2089,2151,2112,1984,1917,1943,1967,1931,1846,1819,1876,1920,1906,1841,1825,1883,1923,1908,1846,1841,1914,1963,1941,1882,1874,1941,1989,1969,1903,1894,1959,2000,1981,1918,1910,1982,2026,1996,1920,1906,1968,2000,1977,1907,1895,1956,1989,1959,1879,1862,1924,1968,1949,1887,1875,1936,1979,1966,1908,1898,1963,2003,1977,1904,1891,1954,1998,1970,1900,1879,1935,1968,1939,1872,1869,1932,1968,1936,1861,1856,1921,1972,1937,1873,1872,1924,1961,1922,1852,1834,1908,1951,1920,1857,1851,1911,1939,1919,1840,1830,1920,1957,1952,1849,1840,1904
1936,1903,1828,1823,1902,1947,1915,1841,1826,1885,1921,1904,1839,1840,1907,1939,1904,1837,1829,1895,1938,1917,1841,1831,1897,1936,1909,1835,1825,1892,1931,1911,1862,1871,1943,1984,1950,1868,1853,1917,1955,1935,1859,1844,1904,1942,1915,1840,1829,1897,1935,1907,1838,1837,1904,1947,1921,1851,1839,1902,1938,1919,1855,1835,1872,1909,1927,1937,2314,3156,4095,4095,4095,4095,4095,4062,2956,2217,1987,2052,2096,2023,1900,1850,1883,1903,1866,1779,1764,1827,1872,1844,1777,1776,1840,1877,1851,1788,1795,1872,1910,1884,1827,1830,1906,1945,1918,1850,1850,1920,1957,1927,1855,1856,1927,1968,1936,1871,1870,1931,1959,1922,1850,1850,1919,1946,1909,1841,1845,1907,1941,1903,1841,1858,1930,1969,1936,1869,1867,1935,1971,1936,1856,1861,1923,1953,1911,1839,1839,1907,1936,1893,1826,1830,1891,1927,1903,1834,1831,1897,1924,1887,1824,1826,1895,1927,1893,1823,1831,1901,1930,1897,1831,1834,1898,1927,1890,1815,1819,1895,1932,1904,1839,1839,1898,1926,1890,1823,1822,1891,1923,1887,1815,1823,1892,1925,1890,1825,1827,1890,1919,1885,1831,1854,1920,1948,1910,1840,1845,1921,1956,1925,1851,1840,1894,1915,1872,1805,1801,1866,1899,1859,1793,1801,1873,1907,1872,1807,1808,1879,1904,1859,1792,1793,1840,1852,1831,1837,1975,2342,2942,3611,4095,4095,4095,3898,3025,2268,1914
1967,2070,2042,1936,1888,1909,1911,1869,1807,1818,1886,1912,1873,1810,1827,1902,1923,1891,1838,1845,1923,1955,1920,1857,1872,1951,1984,1950,1893,1911,1985,2020,2000,1952,1968,2038,2064,2015,1958,1967,2035,2068,2013,1946,1955,2022,2047,2005,1927,1934,1989,2001,1954,1886,1893,1957,1983,1935,1862,1863,1923,1941,1899,1827,1829,1890,1910,1861,1793,1799,1863,1890,1853,1786,1794,1859,1875,1831,1776,1792,1872,1895,1857,1795,1805,1855,1905,1871,1808,1831,1905,1923,1880,1813,1821,1893,1919,1872,1804,1811,1877,1903,1859,1800,1808,1872,1901,1856,1794,1801,1867,1883,1838,1775,1791,1857,1883,1840,1782,1797,1863,1886,1847,1787,1808,1898,1924,1874,1808,1823,1885,1902,1853,1787,1798,1862,1882,1835,1774,1792,1856,1856,1826,1755,1751,1855,1877,1826,1758,1773,1846,1872,1833,1771,1790,1861,1872,1783,1730,1797,1975,2257,2880,3707,4095,4095,4095,4095,4055,3011,2282,1987,1943,1923,1933,1942,1904,1825,1744,1749,1813,1818,1786,1726,1754,1827,1851,1808,1744,1759,1835,1859,1818,1770,1794,1861,1889,1842,1787,1811,1890,1911,1871,1810,1840,1921,1943,1898,1840,1857,1923,1947,1904,1840,1851,1907,1922,1871,1813,1839,1904,1918,1872,1810,1826,1899,1919,1872,1808,1825,1890,1903,1857,1798,1820,1889,1914,1867,1811,1840,1907,1888,1866,1794,1809,1874,1895,1851,1791
1813,1886,1905,1857,1806,1825,1890,1907,1842,1806,1819,1888,1909,1863,1808,1827,1886,1905,1863,1811,1840,1904,1912,1862,1808,1837,1904,1923,1875,1823,1853,1911,1920,1859,1766,1818,1887,1904,1850,1805,1840,1916,1937,1861,1823,1845,1906,1927,1889,1844,1859,1945,1954,1926,1839,1862,1932,1952,1899,1823,1835,1891,1904,1859,1805,1825,1890,1907,1866,1809,1836,1904,1920,1874,1819,1841,1918,1928,1872,1817,1849,1895,1902,1875,1894,2115,2786,3779,4095,4095,4095,4095,4095,3664,2610,2082,2003,2041,1998,1907,1882,1911,1897,1819,1760,1783,1850,1857,1799,1747,1776,1849,1868,1817,1765,1797,1862,1879,1836,1790,1826,1903,1919,1870,1819,1855,1927,1946,1895,1840,1872,1934,1936,1878,1818,1839,1896,1903,1844,1790,1815,1881,1886,1826,1774,1808,1877,1886,1825,1765,1793,1859,1872,1824,1788,1827,1895,1898,1838,1782,1824,1901,1910,1859,1805,1829,1892,1901,1844,1797,1808,1894,1901,1842,1783,1813,1881,1891,1835,1786,1824,1888,1871,1839,1791,1824,1891,1902,1840,1786,1820,1881,1889,1827,1775,1808,1878,1888,1838,1789,1831,1901,1909,1849,1792,1824,1891,1903,1847,1798,1838,1903,1906,1846,1791,1825,1898,1908,1855,1803,1836,1905,1927,1877,1834,1869,1930,1936,1875,1840,1887,1955,1958,1895,1844,1877,1946,1952,1900,1841,1869,1926,1925,1870,1825,1859,1925,1933,1872
1822,1851,1911,1923,1872,1834,1872,1940,1952,1895,1842,1879,1941,1923,1859,1866,1986,2373,3121,4095,4095,4095,4095,4095,4095,3245,2416,2093,2043,2020,1974,1962,1973,1936,1853,1795,1823,1883,1892,1829,1781,1820,1890,1899,1850,1808,1847,1911,1919,1863,1830,1882,1942,1955,1901,1847,1885,1952,1968,1915,1871,1906,1974,1983,1922,1867,1902,1962,1969,1905,1859,1886,1937,1936,1867,1823,1855,1915,1911,1855,1807,1854,1922,1932,1874,1840,1891,1964,1968,1904,1867,1907,1974,1978,1922,1877,1926,1984,1995,1935,1882,1918,1978,1978,1907,1867,1910,1971,1965,1904,1856,1897,1962,1961,1901,1853,1887,1951,1952,1894,1845,1878,1939,1945,1886,1840,1884,1949,1949,1887,1847,1895,1959,1958,1892,1855,1898,1959,1958,1894,1850,1891,1951,1956,1902,1863,1906,1968,1968,1907,1872,1918,1979,1983,1922,1881,1925,1983,1982,1920,1884,1934,1995,1995,1936,1902,1954,2019,2031,1968,1925,1963,2026,2033,1986,1955,1995,2059,2047,1984,1939,1986,2044,2035,1965,1919,1957,2016,2017,1946,1899,1937,2001,2000,1934,1889,1936,1999,1998,1930,1889,1937,1998,1998,1936,1882,1902,1965,2017,2036,2253,2901,3862,4095,4095,4095,4095,4079,3055,2288,2003,2071,2166,2149,2021,1926,1938,1984,1969,1891,1849,1893,1949,1949,1882,1854,1901,1957,1968,1914,1885,1933,1997,1999,1936,1904,1952,2014,2012
1952,1921,1973,2032,2033,1977,1941,1988,2042,2039,1982,1951,2000,2059,2035,1957,1914,1965,2026,2021,1949,1907,1950,2000,1991,1924,1885,1936,1999,1988,1919,1883,1936,1999,1995,1926,1894,1946,2002,2000,1935,1901,1946,1999,1999,1934,1896,1936,1990,1982,1917,1879,1923,1984,1984,1926,1890,1936,1992,1985,1919,1879,1921,1977,1969,1904,1863,1904,1959,1947,1878,1846,1899,1950,1941,1877,1843,1895,1951,1937,1871,1818,1893,1946,1937,1872,1839,1887,1943,1913,1867,1845,1889,1947,1936,1867,1837,1894,1945,1939,1856,1849,1903,1957,1941,1872,1835,1875,2003,1939,1891,1855,1911,1968,1954,1902,1859,1911,1959,1936,1859,1829,1874,1920,1908,1845,1821,1874,1926,1916,1847,1817,1872,1930,1921,1856,1830,1882,1933,1919,1826,1784,1873,2017,2160,2512,3191,4095,4095,4095,4095,4095,3203,2441,2047,1954,1975,2035,2047,1982,1874,1825,1861,1909,1895,1835,1805,1855,1902,1887,1824,1797,1857,1915,1910,1854,1831,1888,1937,1934,1868,1850,1919,1989,1986,1926,1899,1957,2013,2000,1935,1905,1952,2002,1987,1911,1883,1942,2000,1981,1895,1851,1901,1950,1936,1856,1822,1870,1915,1904,1840,1815,1872,1908,1904,1833,1811,1871,1922,1911,1840,1805,1857,1919,1914,1840,1808,1859,1911,1902,1838,1818,1877,1923,1909,1846,1826,1882,1931,1915,1840,1821,1921,1918,1923,1879,1821,1872,1920
1906,1840,1813,1869,1919,1902,1830,1803,1862,1916,1901,1829,1798,1859,1915,1904,1835,1808,1869,1921,1909,1839,1809,1865,1909,1891,1823,1803,1866,1918,1899,1827,1802,1862,1910,1901,1831,1808,1867,1927,1915,1846,1823,1879,1936,1939,1875,1853,1904,1958,1936,1867,1843,1899,1943,1926,1852,1823,1872,1920,1905,1835,1811,1873,1925,1910,1840,1818,1883,1936,1914,1842,1821,1883,1936,1914,1842,1820,1858,1920,1964,1989,2353,3188,4095,4095,4095,4095,4095,4095,3105,2272,1952,1988,2066,2032,1907,1837,1857,1893,1867,1790,1765,1815,1862,1841,1773,1754,1810,1866,1851,1787,1773,1838,1887,1872,1802,1791,1861,1915,1907,1853,1840,1905,1959,1945,1879,1856,1908,1943,1919,1844,1803,1879,1938,1901,1829,1805,1858,1897,1863,1792,1767,1820,1872,1858,1793,1776,1829,1879,1872,1808,1798,1861,1909,1889,1815,1803,1868,1916,1903,1837,1823,1881,1919,1895,1827,1806,1866,1913,1895,1827,1814,1877,1926,1907,1840,1826,1878,1917,1891,1821,1808,1867,1907,1883,1809,1795,1863,1910,1890,1818,1806,1858,1899,1878,1811,1802,1863,1908,1887,1818,1802,1867,1906,1890,1824,1808,1869,1906,1879,1808,1791,1852,1901,1875,1813,1805,1871,1911,1889,1813,1797,1866,1905,1874,1808,1797,1859,1904,1873,1807,1795,1859,1899,1877,1809,1807,1873,1922,1901,1827,1815,1884,1923,1895,1825,1808,1872
1922,1914,1861,1857,1915,1942,1919,1850,1854,1930,1973,1939,1863,1847,1909,1957,1940,1872,1862,1918,1949,1918,1840,1825,1885,1926,1899,1837,1828,1887,1930,1910,1843,1835,1897,1938,1920,1851,1841,1899,1921,1889,1867,1927,2338,3166,4095,4095,4095,4095,4095,4095,3425,2506,2113,2055,2040,1963,1910,1923,1926,1881,1802,1779,1834,1866,1840,1766,1762,1837,1874,1850,1779,1773,1841,1887,1863,1797,1794,1866,1905,1881,1820,1814,1883,1929,1905,1840,1831,1901,1939,1914,1847,1844,1902,1927,1888,1810,1799,1861,1901,1870,1799,1786,1849,1887,1861,1792,1777,1843,1885,1868,1805,1808,1881,1934,1917,1853,1847,1920,1967,1941,1878,1876,1943,1984,1949,1874,1863,1923,1966,1939,1872,1863,1925,1966,1932,1865,1863,1929,1963,1931,1858,1851,1910,1940,1920,1856,1847,1915,1956,1923,1846,1851,1930,1965,1932,1859,1860,1921,1959,1934,1867,1857,1919,1958,1933,1855,1851,1922,1958,1929,1862,1862,1925,1959,1917,1842,1838,1904,1936,1904,1840,1842,1919,1954,1923,1862,1863,1934,1968,1931,1861,1861,1925,1961,1927,1855,1856,1931,1977,1945,1872,1872,1936,1968,1936,1870,1872,1929,1963,1929,1855,1851,1925,1966,1936,1863,1861,1922,1954,1931,1872,1893,1969,2000,1968,1898,1898,1972,2022,1998,1927,1925,1990,2018,1982,1910,1907,1978,2003,1954,1873,1866,1939,1981,1948,1879,1879
1947,1979,1953,1883,1884,1949,1984,1956,1882,1879,1953,1987,1930,1843,1879,1994,2273,2927,3863,4095,4095,4095,4095,4095,3787,2814,2266,2066,2002,2037,2021,1995,1935,1834,1812,1872,1903,1863,1792,1790,1863,1902,1869,1798,1808,1882,1922,1889,1823,1807,1906,1937,1910,1847,1853,1919,1950,1919,1857,1869,1939,1969,1933,1857,1851,1911,1938,1907,1844,1842,1905,1930,1887,1813,1808,1872,1895,1851,1785,1798,1877,1919,1889,1826,1838,1911,1945,1913,1854,1859,1936,1968,1936,1874,1894,1967,1995,1955,1885,1895,1971,2002,1966,1894,1893,1954,1983,1946,1879,1889,1968,2000,1967,1898,1892,1958,1986,1954,1885,1887,1959,1982,1935,1857,1861,1936,1967,1929,1859,1858,1925,1959,1927,1859,1864,1933,1966,1920,1846,1849,1923,1958,1919,1847,1851,1920,1943,1906,1846,1855,1925,1950,1905,1848,1859,1929,1951,1908,1843,1855,1922,1950,1910,1846,1861,1926,1957,1929,1858,1858,1937,1970,1935,1860,1859,1935,1968,1938,1883,1897,1965,1981,1929,1894,1889,1966,2000,1952,1872,1870,1933,1962,1918,1846,1847,1916,1942,1917,1859,1872,1937,1964,1920,1849,1865,1931,1949,1906,1835,1824,1882,1943,1985,2096,2571,3330,4095,4095,4095,4095,3757,2895,2235,1967,2017,2128,2127,2019,1898,1874,1933,1950,1904,1840,1845,1915,1946,1905,1849,1859,1936,1970,1936,1874,1899,1969,1997,1968,1913
1935,2005,2035,2001,1942,1955,2027,2057,2010,1952,1968,2033,2064,2021,1957,1968,2035,2069,2021,1955,1967,2030,2046,1990,1911,1919,1986,2003,1957,1891,1898,1959,1970,1920,1850,1869,1940,1968,1914,1847,1856,1930,1948,1901,1835,1841,1915,1936,1891,1823,1836,1914,1927,1889,1830,1844,1920,1939,1885,1813,1858,1936,1963,1913,1845,1859,1930,1951,1904,1840,1856,1904,1950,1910,1840,1850,1919,1945,1899,1833,1844,1918,1936,1890,1826,1843,1911,1927,1872,1808,1822,1894,1914,1872,1810,1825,1901,1918,1872,1810,1839,1920,1945,1900,1835,1850,1915,1940,1911,1859,1879,1943,1964,1919,1851,1866,1935,1946,1901,1834,1847,1921,1936,1883,1821,1840,1915,1930,1879,1808,1827,1903,1927,1881,1821,1840,1908,1929,1885,1809,1807,1889,1974,2035,2287,2933,3859,4095,4095,4095,4095,3600,2705,2105,1914,1982,2089,2078,1968,1857,1856,1913,1925,1867,1796,1811,1885,1905,1856,1798,1821,1894,1919,1874,1814,1840,1918,1946,1904,1852,1875,1954,1979,1935,1878,1903,1984,2007,1966,1905,1930,1994,2011,1963,1905,1923,1990,1995,1939,1872,1891,1954,1969,1911,1849,1872,1938,1955,1904,1839,1851,1922,1942,1902,1841,1857,1921,1935,1881,1818,1842,1917,1934,1873,1808,1829,1904,1920,1872,1809,1834,1901,1916,1862,1803,1825,1890,1910,1862,1797,1823,1897,1912,1863,1805,1828,1898,1905,1854
1798,1827,1899,1911,1863,1808,1830,1899,1911,1861,1807,1834,1907,1918,1861,1806,1830,1893,1904,1856,1799,1831,1900,1905,1847,1793,1829,1904,1915,1857,1802,1838,1909,1928,1867,1801,1821,1893,1910,1863,1808,1827,1898,1912,1867,1827,1869,1941,1953,1897,1839,1856,1926,1958,1917,1866,1888,1946,1955,1902,1841,1870,1936,1941,1875,1811,1836,1906,1923,1873,1819,1842,1915,1923,1870,1818,1850,1924,1936,1879,1822,1849,1913,1931,1874,1802,1835,1965,2064,2288,2933,3923,4095,4095,4095,4095,4095,3438,2538,2027,1954,1999,2064,2039,1931,1837,1840,1894,1888,1825,1763,1793,1858,1874,1820,1763,1793,1859,1873,1829,1783,1825,1900,1918,1868,1823,1861,1936,1953,1904,1856,1894,1959,1967,1906,1855,1883,1949,1957,1889,1826,1851,1908,1911,1851,1791,1811,1872,1881,1824,1770,1801,1866,1872,1813,1769,1808,1879,1904,1862,1818,1850,1915,1931,1872,1817,1840,1908,1922,1877,1831,1857,1914,1921,1867,1815,1847,1906,1911,1853,1803,1840,1919,1933,1872,1811,1841,1904,1913,1856,1803,1834,1902,1913,1858,1806,1835,1903,1910,1855,1792,1811,1872,1875,1819,1771,1806,1875,1887,1835,1785,1817,1881,1887,1831,1780,1815,1921,1904,1845,1789,1818,1883,1894,1825,1776,1803,1872,1886,1830,1778,1815,1878,1883,1819,1771,1808,1877,1904,1851,1802,1830,1905,1890,1863,1827,1866,1930,1930
1865,1809,1843,1909,1920,1869,1811,1843,1902,1910,1857,1803,1828,1892,1904,1847,1804,1843,1913,1920,1859,1808,1840,1911,1920,1867,1822,1847,1898,1930,1945,2025,2511,3393,4095,4095,4095,4095,4095,3778,2730,2096,1982,2078,2106,2003,1904,1898,1936,1921,1859,1808,1843,1913,1921,1869,1827,1871,1943,1955,1901,1858,1907,1979,1979,1917,1871,1915,1989,2000,1949,1904,1946,2015,2022,1968,1921,1966,2021,2019,1956,1919,1965,2014,2001,1949,1916,1948,1987,1974,1929,1904,1945,1985,1968,1921,1898,1936,1979,1964,1915,1900,1937,1975,1951,1901,1886,1927,1969,1953,1904,1877,1920,1962,1941,1891,1871,1917,1959,1937,1887,1866,1905,1952,1936,1894,1873,1910,1949,1935,1883,1859,1904,1945,1923,1872,1854,1904,1940,1920,1872,1848,1885,1923,1906,1865,1847,1889,1930,1906,1859,1843,1891,1936,1922,1875,1866,1913,1947,1927,1882,1869,1907,1942,1917,1871,1844,1890,1938,1936,1891,1872,1910,1951,1940,1914,1903,1939,1973,1951,1895,1876,1920,1967,1947,1888,1858,1890,1931,1919,1867,1849,1890,1930,1917,1873,1856,1888,1926,1915,1873,1856,1901,1937,1917,1863,1840,1867,1902,1930,1981,2176,2721,3504,4095,4095,4095,4095,3873,2927,2206,1941,2010,2109,2086,1987,1913,1913,1934,1904,1854,1840,1887,1930,1910,1868,1856,1903,1938,1933,1897,1893,1938,1984,1970,1936,1920,1963,2000
