1905,1964,2007,2075,2128,2157,2118,2042,1976,1884,1854,1840,1853,1878,1904,1923,1939,1963,1979,1970,1979,2001,2011,2019,2037,2054,2071,2086,2103,2124,2155,2181,2242,2255,2289,2295,2293,2298,2321,2333,3920,3091,1994,2375,2413,2439,2466,2496,2522,2547,2594,2603,2567,2493,2383,2278,2191,2118,2096,2071,2045,2030,1997,1977,1956,1918,1877,1855,1831,1818,1792,1773,1746,1733,1708,1739,1715,1709,1680,1616,1573,1560,1525,2823,2219,1131,1457,1504,1523,1554,1589,1616,1654,1693,1712,1679,1611,1520,1419,1342,1295,1279,1286,1291,1289,1285,1289,1283,1290,1281,1279,1279,1258,1277,1280,1291,1340,1361,1365,1363,1347,1345,1344,1372,2797,1670,1107,1386,1431,1482,1522,1573,1616,1671,1734,1767,1765,1697,1618,1535,1488,1482,1509,1548,1594,1662,1693,1715,1744,1763,1787,1806,1821,1842,1902,1917,1963,1966,1937,1947,1942,1953,2807,2913,1346,1995,2016,2054,2094,2128,2159,2205,2255,2285,2260,2192,2111,2010,1935,1882,1883,1895,1904,1905,1911,1915,1895,1887,1874,1887,1877,1878,1890,1886,1918,1951,1989,1995,1958,1967,1975,1991,2288,3575,1652,2096,2094,2149,2191,2211,2265,2320,2362,2413,2416,2362,2291,2222,2143,2073,2064,2046,2051,2047,2030,2025,2006,1987,1973,1958,1936,1925,1904,1898,1890,1876,1855,1861,1872,1879,1851,1797,1769,1752,1741,1939,3101,1392,1693,1708,1743,1759,1782,1807,1843,1867,1914,1906,1854,1773,1674,1584,1530,1507,1525,1527,1547,1543,1552,1550,1526,1552,1557,1561,1558,1561,1565,1572,1581,1613,1639,1621,1601,1569,1574,1565,1630,3185,1754,1433,1626,1695,1736,1787,1829,1872,1936,1983,2023,1997,1918,1831,1744,1665,1647,1623,1646,1657,1672,1687,1699,1687,1691,1690,1700,1727,1763,1773,1776,1786,1781,1791,1808,1811,1821,1858,1851,1873,1866,1827,1819,1833,1846,2754,2911,1342,1893,1907,1945,1968,1997,2046,2085,2135,2160,2134,2094,2010,1923,1855,1811,1791,1789,1782,1785,1775,1774,1771,1764,1744,1744,1733,1733,1733,1734,1744,1746,1746,1755,1761,1760,1770,1792,1808,1798,1778,1751,1744,1741,1775,3248,1920,1570,1776,1839,1877,1918,1953,1998,2064,2125,2145,2113,2035,1950,1865,1813,1792,1792,1801,1810,1828,1830,1823,1813,1807,1810,1805,1805,1787,1788,1799,1808,1808,1808,1806,1808,1839,1838,1873,1867,1839,1840,1850,1854,2355,3168,1376,1927,1919,1968,2004,2032,2082,2129,2186,2225,2228,2173,2102,2017,1936,1904,1874,1879,1881,1895,1898,1903,1905,1892,1875,1870,1861,1862,1858,1856,1856,1863,1877,1871,1865,1863,1855,1861,1870,1893,1874,1862,1848,1841,1841,2084,3395,1725,1930,1921,1975,2009,2039,2083,2113,2153,2192,2209,2167,2100,2007,1909,1843,1807,1801,1808,1817,1810,1814,1819,1820,1815,1808,1817,1822,1829,1845,1921,1934,1946,1985,2006,2032,2025,2019,2029,2043,2064,3354,2608,1734,2193,2263,2329,2381,2431,2494,2559,2621,2672,2656,2577,2506,2404,2336,2299,2298,2304,2320,2329,2320,2317,2295,2285,2257,2241,2224,2217,2197,2182,2162,2159,2175,2174,2142,2105,2064,2027,2011,2064,3780,2160,1866,1968,2014,2053,2071,2094,2107,2131,2166,2157,2110,2029,1927,1829,1744,1693,1675,1673,1658,1651,1646,1619,1600,1574,1554,1551,1545,1520,1518,1520,1526,1543,1553,1584,1612,1591,1572,1547,1535,1547,1741,3089,1360,1591,1556,1599,1627,1664,1712,1753,1812,1851,1872,1846,1807,1731,1659,1605,1614,1626,1655,1683,1714,1730,1747,1769,1778,1799,1811,1828,1850,1870,1898,1953,1968,2003,2015,2005,2007,2021,2035,2891,2892,1487,2124,2160,2211,2266,2318,2375,2416,2502,2576,2567,2526,2464,2395,2346,2327,2351,2403,2434,2451,2474,2482,2492,2496,2498,2503,2499,2499,2546,2549,2554,2544,2494,2480,2458,2439,3163,3579,1774,2414,2402,2414,2399,2394,2405,2400,2386,2373,2332,2224,2112,1984,1860,1793,1750,1742,1739,1738,1727,1721,1733,1706,1707,1689,1680,1664,1643,1638,1669,1642,1610,1599,1523,1490,1478,1465,2478,2407,892,1474,1490,1559,1588,1627,1665,1702,1776,1799,1792,1733,1665,1599,1533,1507,1517,1527,1525,1522,1530,1510,1511,1507,1520,1520,1530,1567,1575,1582,1614,1629,1670,1692,1728,1762,1738,1739,1760,1769,2510,2897,1227,1845,1858,1899,1943,2005,2086,2157,2192,2255,2268,2235,2178,2113,2070,2028,2025,2041,2061,2055,2066,2083,2064,2041,2027,2032,2035,2055,2059,2082,2097,2110,2141,2192,2244,2270,2270,2249,2281,2307,2338,4038,2719,2129,2480,2559,2619,2659,2718,2757,2821,2867,2896,2851,2769,2671,2591,2521,2480,2480,2485,2495,2485,2479,2462,2453,2425,2405,2386,2366,2354,2323,2303,2289,2266,2259,2248,2224,2231,2238,2246,2264,2240,2203,2162,2151,2129,2339,3677,1882,2099,2064,2096,2112,2137,2150,2192,2224,2239,2235,2175,2098,1994,1917,1864,1846,1821,1814,1814,1827,1818,1824,1821,1815,1808,1795,1792,1799,1798,1795,1791,1799,1806,1819,1827,1840,1851,1894,1909,1931,1919,1885,1856,1856,1846,2921,2779,1424,1893,1931,1972,2021,2055,2087,2141,2181,2214,2203,2160,2094,2014,1950,1904,1908,1919,1931,1930,1936,1933,1950,1945,1943,1943,1949,1980,1970,1981,1987,2001,1994,1998,2015,2022,2055,2097,2090,2047,2047,2063,2059,2215,3538,1889,2074,2123,2194,2225,2258,2303,2343,2395,2432,2448,2394,2304,2219,2143,2087,2066,2070,2096,2101,2096,2094,2081,2082,2064,2064,2073,2064,2068,2070,2067,2077,2075,2085,2087,2085,2111,2117,2141,2127,2106,2077,2066,2063,2432,3465,1695,2114,2083,2123,2159,2187,2217,2250,2293,2324,2327,2271,2189,2105,2021,1968,1953,1966,1980,1978,1975,1979,1979,1974,1962,1955,1965,1964,1968,1978,1982,1989,1986,1999,1990,1988,2000,2023,2056,2101,2070,2054,2043,2046,2058,2363,3619,1819,2131,2096,2144,2160,2192,2213,2256,2286,2319,2311,2265,2187,2109,2023,1969,1936,1934,1936,1930,1926,1930,1921,1919,1918,1904,1905,1915,1918,1930,1939,1933,1968,1969,1997,1986,1960,1948,1943,1947,2640,2847,1372,1993,2030,2070,2111,2134,2182,2233,2294,2343,2352,2290,2201,2090,2002,1959,1957,1957,1984,2003,2014,2011,2015,2005,2016,2017,2011,2017,2018,2075,2068,2098,2083,2059,2061,2078,2074,3062,2963,1520,2103,2129,2151,2181,2206,2238,2288,2350,2368,2333,2263,2176,2077,1998,1951,1943,1952,1971,1975,1971,1984,1983,1982,1971,1971,1985,1995,1998,2012,2026,2083,2095,2078,2069,2033,2010,2022,2032,3449,2732,1715,2019,2066,2101,2129,2160,2192,2234,2272,2288,2247,2190,2111,2037,1979,1942,1940,1951,1951,1943,1943,1921,1914,1906,1907,1915,1929,1936,1931,1940,1957,1968,2020,2042,2031,2015,2000,2000,2004,2065,3742,2396,1931,2065,2118,2159,2193,2236,2285,2330,2373,2403,2369,2299,2224,2160,2087,2070,2064,2067,2058,2054,2041,2030,2019,2000,1995,1981,1983,1981,1988,1997,2023,2011,1973,1962,1943,1952,2007,3547,1988,1791,1993,2064,2089,2122,2153,2186,2230,2287,2301,2255,2175,2078,1995,1923,1918,1920,1931,1945,1951,1955,1942,1935,1931,1920,1904,1906,1904,1905,1899,1904,1941,1958,1952,1935,1885,1901,1898,1922,3516,2297,1690,1926,1967,2000,2011,2053,2083,2112,2151,2159,2118,2047,1975,1902,1840,1815,1814,1825,1829,1822,1830,1823,1825,1809,1814,1815,1798,1815,1823,1833,1840,1855,1863,1877,1887,1934,1945,1939,1936,1909,1893,1885,1901,3267,2635,1584,1926,1966,1992,2029,2063,2109,2142,2192,2207,2176,2122,2047,1985,1927,1899,1902,1904,1899,1898,1891,1888,1877,1873,1863,1854,1829,1853,1844,1854,1861,1867,1856,1862,1856,1865,1868,1900,1925,1919,1892,1878,1866,1870,1897,3383,2226,1668,1914,1955,1982,2011,2042,2073,2110,2156,2178,2133,2064,1971,1889,1818,1791,1777,1789,1808,1818,1832,1832,1828,1825,1819,1820,1815,1811,1828,1823,1827,1841,1860,1881,1888,1915,1911,1882,1871,1867,1853,2032,3358,1648,1850,1885,1930,1958,1990,2023,2055,2099,2142,2142,2090,2001,1904,1819,1765,1741,1744,1763,1776,1792,1791,1803,1802,1786,1777,1777,1776,1776,1776,1777,1778,1779,1782,1777,1783,1783,1787,1803,1835,1857,1839,1811,1810,1808,1801,1841,3466,2259,1683,1836,1878,1904,1940,1970,2003,2047,2096,2114,2075,2008,1922,1847,1779,1743,1737,1744,1753,1758,1766,1758,1746,1747,1741,1731,1731,1728,1727,1728,1727,1728,1735,1738,1734,1731,1755,1733,1750,1781,1744,1727,1718,1708,1690,1808,3175,1674,1654,1734,1783,1813,1831,1866,1905,1946,1997,2022,1979,1895,1805,1719,1679,1659,1666,1693,1724,1738,1758,1765,1773,1779,1776,1776,1787,1799,1811,1827,1838,1847,1857,1867,1865,1904,1872,1855,1858,1829,1827,1943,3422,1815,1781,1840,1895,1920,1937,1975,2015,2064,2105,2112,2082,2001,1911,1809,1757,1719,1712,1727,1741,1737,1728,1735,1728,1712,1710,1706,1705,1698,1703,1703,1710,1712,1714,1712,1742,1744,1776,1761,1741,1712,1717,1719,2219,3079,1227,1789,1757,1783,1811,1842,1872,1907,1952,1977,1968,1921,1839,1753,1670,1606,1578,1589,1601,1603,1606,1607,1605,1607,1599,1596,1609,1626,1623,1641,1643,1651,1663,1664,1670,1712,1734,1713,1695,1665,1660,1665,1775,3280,1781,1644,1687,1744,1773,1808,1831,1872,1906,1939,1959,1915,1845,1744,1654,1573,1522,1518,1527,1531,1532,1542,1552,1551,1548,1552,1552,1562,1567,1575,1599,1626,1664,1663,1632,1608,1602,1607,1621,3035,1909,1341,1680,1749,1793,1835,1872,1917,1973,2032,2070,2039,1957,1862,1750,1681,1650,1655,1671,1691,1707,1719,1721,1712,1708,1708,1699,1703,1695,1694,1715,1738,1770,1744,1725,1694,1691,1686,1751,3318,1875,1555,1718,1774,1808,1840,1872,1914,1957,2000,2023,1979,1904,1815,1721,1664,1638,1635,1648,1674,1682,1693,1683,1681,1680,1680,1669,1669,1655,1664,1664,1663,1671,1680,1697,1728,1749,1730,1727,1706,1710,1715,1794,3386,1914,1648,1738,1785,1810,1850,1893,1925,1968,2011,2026,1999,1936,1869,1791,1738,1697,1705,1727,1743,1741,1744,1742,1746,1746,1751,1755,1771,1786,1803,1824,1840,1861,1886,1907,1915,1901,1892,1911,1916,2113,3408,1759,1941,2010,2069,2101,2130,2171,2192,2246,2293,2304,2252,2169,2060,1959,1894,1863,1869,1881,1885,1867,1853,1838,1819,1788,1776,1763,1756,1749,1741,1735,1728,1712,1700,1683,1706,1684,1655,1618,1564,1513,1490,1471,2800,2022,1022,1395,1431,1456,1470,1488,1505,1543,1578,1611,1579,1511,1433,1345,1296,1255,1267,1271,1297,1312,1326,1328,1326,1318,1305,1307,1303,1322,1331,1348,1362,1375,1399,1412,1431,1456,1472,1488,1522,1535,1569,1577,1567,1555,1579,1600,2526,2707,1133,1706,1715,1769,1813,1853,1875,1941,1998,2037,2038,2000,1941,1879,1827,1808,1802,1818,1842,1870,1882,1885,1900,1931,1957,1931,1916,1902,1899,1872,1867,1860,1854,1856,1854,1849,1851,1856,1856,1891,1886,1911,1886,1858,1842,1834,1822,2709,2656,1325,1851,1872,1906,1935,1961,1989,2033,2084,2114,2090,2016,1935,1837,1767,1735,1724,1744,1767,1777,1793,1802,1796,1792,1792,1790,1776,1781,1786,1793,1801,1806,1814,1829,1840,1837,1839,1840,1895,1887,1898,1872,1847,1826,1821,1831,3095,2663,1462,1848,1894,1905,1939,1961,1994,2027,2068,2096,2064,2009,1939,1872,1811,1782,1779,1789,1792,1793,1795,1795,1783,1776,1776,1776,1773,1771,1772,1771,1762,1767,1776,1766,1773,1776,1776,1808,1795,1819,1818,1775,1753,1751,1758,2497,2923,1232,1808,1820,1849,1881,1905,1949,1995,2032,2083,2081,2032,1959,1874,1801,1748,1736,1759,1776,1792,1804,1810,1810,1807,1808,1803,1806,1801,1798,1814,1825,1838,1841,1847,1861,1895,1904,1895,1891,1867,1862,1870,1856,3123,2411,1486,1873,1919,1962,1984,2011,2058,2084,2133,2175,2160,2097,2000,1904,1840,1799,1795,1803,1817,1841,1842,1840,1827,1822,1818,1811,1809,1806,1805,1801,1805,1808,1810,1813,1817,1820,1862,1867,1874,1872,1842,1837,1840,1843,3021,2675,1405,1858,1875,1907,1936,1968,2003,2058,2102,2129,2117,2064,1982,1894,1819,1775,1767,1782,1793,1806,1807,1814,1813,1808,1813,1815,1820,1821,1822,1818,1833,1829,1832,1840,1844,1856,1863,1888,1925,1904,1885,1859,1862,1871,2141,3406,1639,1927,1899,1934,1957,1971,2002,2033,2078,2107,2112,2073,2005,1919,1845,1779,1751,1765,1769,1777,1778,1776,1777,1785,1805,1776,1776,1773,1777,1776,1776,1776,1783,1786,1811,1834,1837,1808,1791,1781,1779,1776,2987,2334,1387,1834,1882,1925,1964,1997,2032,2099,2165,2198,2187,2112,2023,1923,1847,1808,1791,1810,1824,1837,1843,1841,1840,1840,1834,1840,1840,1835,1851,1856,1872,1871,1875,1887,1927,1923,1937,1930,1905,1887,1890,1900,2777,2849,1344,1943,1968,1997,2030,2064,2101,2138,2190,2224,2205,2142,2068,1971,1889,1835,1820,1821,1839,1847,1852,1856,1859,1861,1842,1840,1842,1840,1851,1845,1853,1853,1849,1853,1855,1856,1856,1856,1851,1872,1904,1878,1861,1854,1843,1843,1903,3443,2175,1715,1855,1904,1933,1957,1985,2014,2064,2117,2150,2125,2059,1966,1875,1808,1773,1780,1786,1799,1802,1808,1806,1801,1793,1791,1792,1795,1792,1803,1801,1809,1829,1843,1861,1905,1898,1926,1922,1904,1895,1899,1903,2895,2787,1382,1952,1973,2003,2036,2080,2125,2169,2225,2256,2253,2204,2112,2007,1936,1882,1859,1866,1877,1873,1873,1877,1872,1861,1861,1840,1840,1833,1825,1835,1823,1822,1815,1818,1810,1809,1808,1808,1822,1820,1850,1829,1808,1790,1790,1778,1998,3314,1665,1798,1782,1817,1840,1857,1892,1921,1965,2009,2015,1978,1921,1841,1753,1695,1662,1679,1685,1690,1707,1707,1705,1703,1702,1703,1695,1706,1709,1713,1712,1719,1726,1733,1728,1740,1750,1754,1757,1767,1792,1795,1797,1791,1773,1762,1771,1777,3117,2471,1457,1807,1826,1856,1891,1926,1975,2010,2066,2100,2091,2042,1970,1882,1808,1771,1770,1779,1799,1802,1806,1808,1813,1811,1805,1808,1808,1808,1806,1808,1808,1819,1820,1825,1840,1853,1898,1886,1869,1857,1871,1866,1927,3424,1986,1743,1917,1975,2013,2045,2085,2125,2165,2221,2252,2224,2147,2047,1954,1879,1856,1854,1872,1878,1904,1907,1902,1903,1893,1890,1887,1871,1866,1868,1867,1863,1871,1872,1870,1878,1902,1904,1925,1906,1873,1853,1857,1850,2098,3344,1647,1894,1883,1931,1953,1984,2025,2074,2119,2169,2176,2135,2064,1971,1877,1815,1781,1779,1787,1791,1793,1794,1792,1794,1782,1774,1765,1753,1749,1744,1746,1758,1755,1759,1766,1775,1787,1789,1825,1841,1818,1808,1787,1776,1776,1814,3408,2271,1635,1819,1859,1878,1909,1936,1974,2006,2047,2072,2053,1987,1907,1817,1746,1697,1691,1693,1712,1718,1719,1712,1715,1712,1702,1689,1685,1687,1680,1671,1679,1681,1683,1692,1716,1712,1744,1736,1695,1685,1678,1670,2000,2899,1251,1733,1755,1806,1849,1884,1931,1971,2033,2092,2114,2071,1980,1890,1796,1743,1724,1728,1746,1776,1788,1797,1807,1808,1802,1808,1795,1793,1799,1799,1793,1808,1845,1849,1843,1839,1818,1808,1818,1830,3120,2566,1437,1861,1903,1943,1981,2002,2058,2112,2168,2206,2203,2136,2063,1967,1881,1835,1810,1813,1820,1819,1812,1822,1817,1806,1799,1806,1807,1806,1808,1809,1806,1798,1796,1795,1801,1831,1837,1814,1780,1775,1756,1753,1776,3287,2305,1525,1762,1793,1811,1840,1862,1902,1931,1972,1990,1955,1877,1795,1687,1603,1557,1551,1549,1551,1543,1520,1510,1517,1507,1501,1491,1485,1485,1489,1491,1490,1498,1498,1503,1505,1525,1569,1582,1587,1584,1552,1548,1555,1553,2731,2267,1171,1614,1659,1698,1744,1786,1826,1873,1935,1977,1967,1904,1814,1712,1642,1591,1587,1601,1619,1617,1633,1629,1626,1633,1647,1653,1666,1673,1685,1702,1707,1727,1745,1782,1814,1815,1799,1782,1792,1791,1840,3379,1982,1650,1851,1904,1936,1967,2000,2043,2095,2139,2159,2134,2055,1941,1840,1769,1733,1733,1744,1759,1763,1770,1765,1757,1743,1733,1734,1735,1728,1722,1731,1723,1713,1713,1718,1713,1718,1706,1758,1761,1759,1758,1733,1707,1712,1701,2767,2619,1229,1715,1744,1770,1798,1815,1847,1904,1935,1974,1958,1902,1834,1755,1693,1638,1639,1648,1653,1658,1659,1667,1669,1659,1655,1645,1642,1646,1631,1648,1649,1649,1648,1650,1649,1649,1649,1643,1648,1654,1655,1670,1679,1680,1678,1665,1655,1648,1663,3061,2256,1393,1670,1711,1745,1774,1805,1836,1883,1920,1950,1930,1872,1787,1702,1625,1572,1567,1583,1589,1603,1594,1601,1600,1594,1596,1597,1591,1600,1614,1614,1619,1616,1634,1648,1650,1657,1663,1682,1690,1695,1694,1680,1677,1680,1686,2893,2352,1301,1739,1776,1799,1840,1869,1909,1948,1997,2031,2012,1951,1857,1758,1680,1638,1637,1648,1665,1693,1698,1701,1695,1683,1685,1687,1687,1692,1691,1691,1698,1703,1699,1712,1713,1723,1726,1722,1744,1739,1771,1745,1729,1715,1718,1712,2299,2977,1205,1749,1719,1751,1776,1802,1836,1870,1909,1940,1937,1899,1820,1739,1657,1598,1575,1578,1585,1588,1606,1589,1593,1585,1581,1573,1581,1581,1584,1597,1609,1616,1627,1638,1645,1650,1678,1680,1729,1717,1716,1695,1716,1703,1851,3147,1641,1683,1757,1799,1827,1854,1879,1923,1962,2005,2029,1997,1915,1818,1731,1667,1634,1634,1658,1676,1691,1690,1693,1691,1682,1685,1691,1697,1709,1723,1725,1739,1746,1761,1783,1794,1831,1821,1808,1783,1791,1790,2096,3213,1487,1842,1837,1881,1907,1929,1962,1999,2047,2099,2115,2079,2001,1907,1823,1764,1753,1750,1772,1792,1783,1779,1779,1770,1770,1763,1761,1766,1763,1756,1761,1766,1765,1767,1809,1821,1811,1789,1760,1743,1744,1771,3328,2230,1542,1763,1783,1803,1830,1856,1888,1927,1974,2000,1973,1925,1842,1751,1680,1630,1631,1635,1651,1664,1665,1667,1680,1679,1671,1682,1683,1696,1713,1744,1742,1776,1776,1744,1740,1739,1744,2128,3010,1225,1809,1838,1904,1935,1981,2031,2071,2131,2197,2221,2174,2091,1985,1893,1831,1807,1823,1840,1854,1855,1852,1850,1843,1828,1824,1816,1813,1813,1819,1855,1849,1851,1836,1804,1777,1775,1776,2452,2908,1147,1817,1799,1830,1850,1866,1893,1925,1975,2001,1999,1938,1858,1766,1697,1648,1639,1652,1666,1679,1667,1667,1664,1646,1636,1630,1618,1625,1628,1630,1623,1634,1645,1646,1662,1658,1707,1705,1728,1731,1693,1687,1701,1710,2590,2832,1202,1776,1767,1799,1825,1854,1891,1931,1981,2014,2011,1961,1915,1842,1793,1754,1748,1762,1767,1771,1773,1775,1779,1780,1776,1789,1786,1791,1806,1809,1823,1831,1839,1845,1857,1902,1913,1929,1927,1898,1891,1897,1901,2939,2681,1442,1969,2000,2046,2098,2131,2160,2210,2263,2316,2293,2237,2158,2054,1970,1925,1904,1915,1935,1945,1949,1963,1973,1973,1969,1979,1993,1994,2009,2025,2054,2055,2064,2103,2118,2112,2106,2084,2067,2070,2064,3296,2795,1628,2109,2132,2166,2194,2215,2253,2293,2332,2366,2334,2273,2181,2098,2032,1977,1974,1970,1984,1985,1989,1999,1997,1974,1975,1983,1977,1978,1973,1977,1973,1971,1984,1983,1980,1985,1991,2000,2045,2067,2045,2032,2009,2019,2032,2091,3831,2368,1968,2057,2091,2119,2144,2165,2195,2243,2273,2285,2250,2188,2113,2053,1994,1951,1948,1963,1964,1961,1946,1949,1950,1947,1935,1923,1935,1934,1936,1938,1936,1938,1943,1937,1957,1953,1967,1967,1979,1999,2016,2043,2031,2012,2000,1998,2005,2174,3590,1969,2023,2057,2112,2150,2173,2208,2240,2281,2322,2342,2310,2227,2134,2038,1979,1941,1940,1955,1969,1966,1963,1954,1945,1936,1946,1946,1949,1951,1953,1959,1967,1968,1981,2001,2033,2010,1991,1987,1978,1987,2016,3632,2258,1783,2003,2066,2096,2127,2165,2200,2255,2302,2333,2304,2225,2129,2031,1943,1910,1901,1911,1923,1922,1933,1931,1920,1920,1913,1920,1919,1921,1925,1937,1942,1946,1953,1957,1965,1997,1989,2022,2014,1979,1962,1979,1987,2832,3058,1459,2060,2061,2095,2128,2155,2194,2243,2289,2323,2320,2259,2183,2111,2038,1986,1982,1998,2016,2023,2010,2025,2015,2002,2002,1989,1995,1993,1997,1999,2001,2002,2007,2023,